2.667005790055539949e-01
2.687674335791364610e-01
2.749246741226037960e-01
2.851073158700364596e-01
2.992503740555128577e-01
3.172888639131145050e-01
3.391578006769201958e-01
3.647921995810101681e-01
3.941270758594634938e-01
4.270974447463612433e-01
4.636383214757817117e-01
5.036847212818059694e-01
5.471716593985125332e-01
5.940341510599834729e-01
6.442072115002954735e-01
6.976258559535311043e-01
7.542250996537682717e-01
8.139399578350879905e-01
8.767054457315698324e-01
9.424565785772930360e-01
1.011128371606337950e+00
1.082655840052784812e+00
1.156973999150712196e+00
1.234017864134199671e+00
1.313722450237329475e+00
1.396022772694180070e+00
1.480853846738829915e+00
1.568150687605359916e+00
1.657848310527851865e+00
1.749881730740381336e+00
1.844185963477032342e+00
1.940694113271495658e+00
2.039311570930246287e+00
2.139922832519597140e+00
2.242411881395926176e+00
2.346662700915609356e+00
2.452559274435026637e+00
2.559985585310554423e+00
2.668825616898568232e+00
2.778963352555448019e+00
2.890282775637570190e+00
3.002667869501312037e+00
3.116002617503050853e+00
3.230171002999165264e+00
3.345057009346031673e+00
3.460544619900026930e+00
3.576517818017528327e+00
3.692860587054916266e+00
3.809456910368565374e+00
3.926190771314852057e+00
4.042946153250157160e+00
4.159607039530855310e+00
4.276057413513325578e+00
4.392181258553942591e+00
4.507862558009088083e+00
4.622985295235135794e+00
4.737433453588467458e+00
4.851091016425454150e+00
4.963841967102477604e+00
5.075570288975916000e+00
5.186159965402143968e+00
5.295494788296648991e+00
5.403425082758001707e+00
5.509729730513386770e+00
5.614178427451987474e+00
5.716540869462990671e+00
5.816586752435581431e+00
5.914085772258945717e+00
6.008807624822272153e+00
6.100522006014743148e+00
6.188998611725543775e+00
6.274007137843862658e+00
6.355317280258884871e+00
6.432698734859798151e+00
6.505921197535784906e+00
6.574754364176031984e+00
6.638967930669726236e+00
6.698331592906051846e+00
6.752615046774197438e+00
6.801587988163346310e+00
6.845020112962684422e+00
6.882681117061400400e+00
6.914340696348676651e+00
6.939768546713700914e+00
6.958734364045659149e+00
6.971007844233736428e+00
6.976358683167118713e+00
6.974556576734991964e+00
6.965371220826542142e+00
6.948572311330954321e+00
6.923929544137416237e+00
6.891212615135112074e+00
6.850231489542811580e+00
6.801072094345614438e+00
6.743936050799922199e+00
6.679025374937928916e+00
6.606542082791825976e+00
6.526688190393805655e+00
6.439665713776056677e+00
6.345676668970771317e+00
6.244923072010141851e+00
6.137606938926358779e+00
6.023930285751617042e+00
5.904095128518100921e+00
5.778303483258007134e+00
5.646757366003526180e+00
5.509658792786845893e+00
5.367209779640164768e+00
5.219612342595667975e+00
5.067068497685548678e+00
4.909780260941998264e+00
4.747949648397209899e+00
4.581778676083373192e+00
4.411469360032679532e+00
4.237223716277322083e+00
4.059243760849487792e+00
3.877731509781370711e+00
3.692888979105163116e+00
3.504918184853056395e+00
3.314021143057239271e+00
3.120399869749908461e+00
2.924256380963248692e+00
2.725794983301966123e+00
2.525294408656927114e+00
2.323122371697252664e+00
2.119651818322250580e+00
1.915255694431224454e+00
1.710306945923479649e+00
1.505178518698321977e+00
1.300243358655055248e+00
1.095874411692986161e+00
8.924446237114188607e-01
6.903269406096599337e-01
4.898943082870129695e-01
2.915196726427849439e-01
9.557597957627916863e-02
-9.756382501319726952e-02
-2.875267952263406146e-01
-4.739399851638441685e-01
-6.564304489263994569e-01
-8.346252406147094405e-01
-1.008151414329466533e+00
-1.176636024171362482e+00
-1.339706124241093033e+00
-1.496988768639353928e+00
-1.648111011466838471e+00
-1.792699906824243294e+00
-1.930382508812261255e+00
-2.060785871531589208e+00
-2.183537049082919346e+00
-2.298263095566948078e+00
-2.404591065084370261e+00
-2.502148017413084347e+00
-2.590664356839555982e+00
-2.670237731071956500e+00
-2.741047326888693458e+00
-2.803272331068175305e+00
-2.857091930388811374e+00
-2.902685311629010556e+00
-2.940231661567180410e+00
-2.969910166981731603e+00
-2.991900014651071249e+00
-3.006380391353608239e+00
-3.013530483867753240e+00
-3.013529478971913367e+00
-3.006556563444497510e+00
-2.992790924063915003e+00
-2.972411747608572963e+00
-2.945598220856882499e+00
-2.912529530587250726e+00
-2.873384863578087867e+00
-2.828343406607801036e+00
-2.777584346454800013e+00
-2.721286869897492355e+00
-2.659630163714288731e+00
-2.592793414683596698e+00
-2.520955809583825147e+00
-2.444296535193382969e+00
-2.362994778290679054e+00
-2.277229725654121406e+00
-2.187180564062120247e+00
-2.093026480293083136e+00
-1.994946661125421405e+00
-1.893127138176794011e+00
-1.787839341166226115e+00
-1.679412694636685410e+00
-1.568177728732111920e+00
-1.454464973596443000e+00
-1.338604959373616898e+00
-1.220928216207572525e+00
-1.101765274242247683e+00
-9.814466636215811723e-01
-8.603029144895107949e-01
-7.386645569899747965e-01
-6.168621212669122000e-01
-4.952261374642611957e-01
-3.740871357259590857e-01
-2.537756461959456700e-01
-1.346221990181579731e-01
-1.695732433653528159e-02
9.888844770498475545e-02
2.125845869624629625e-01
3.238005632919621624e-01
4.322058465495401403e-01
5.374699065912648122e-01
6.392622132731952123e-01
7.372522364513924842e-01
8.311094459819184932e-01
9.205033117208349935e-01
1.005103303524203850e+00
1.084578891248086041e+00
1.158599544748543986e+00
1.226834733881639439e+00
1.288955292307952361e+00
1.344788691530402813e+00
1.394462209588476442e+00
1.438136963132060631e+00
1.475974068811041207e+00
1.508134643275305109e+00
1.534779803174739277e+00
1.556070665159229316e+00
1.572168345878662832e+00
1.583233961982924765e+00
1.589428630121903829e+00
1.590913466945485188e+00
1.587849589103556225e+00
1.580398113246002545e+00
1.568720156022711310e+00
1.552976834083569235e+00
1.533329264078462151e+00
1.509938562657277439e+00
1.482965846469900928e+00
1.452572232166219779e+00
1.418918836396120486e+00
1.382166775809488435e+00
1.342477167056211895e+00
1.300011126786177140e+00
1.254929771649269998e+00
1.207394218295377186e+00
1.157565583374384754e+00
1.105604983536180752e+00
1.051673535430650785e+00
9.959323557076815714e-01
9.385425610171593824e-01
8.796664645606214750e-01
8.194736258879363744e-01
7.581363182041350735e-01
6.958268194743224555e-01
6.327174076636046252e-01
5.689803607370879091e-01
5.047879566598778567e-01
4.403124733970802396e-01
3.757261889138010513e-01
3.112013811751455639e-01
2.469103281462203259e-01
1.830253077921309701e-01
1.197185980779834347e-01
5.716247696888319269e-02
-4.470777570063743170e-03
-6.500888757375133942e-02
-1.242795750770740726e-01
-1.821105621149258225e-01
-2.383295707222007342e-01
-2.927643229337932862e-01
-3.452425407845972072e-01
-3.955919463095072253e-01
-4.436402615434169583e-01
-4.892152085212208013e-01
-5.321445092778129826e-01
-5.722558858480875088e-01
-6.093770602669386083e-01
-6.433357545692603985e-01
-6.739596907899471079e-01
-7.010765909638928539e-01
-7.245194620920462070e-01
-7.442610813695798022e-01
-7.604249340868876050e-01
-7.731419819743654553e-01
-7.825431867624090820e-01
-7.887595101814156573e-01
-7.919219139617807990e-01
-7.921613598339004580e-01
-7.896088095281705854e-01
-7.843952247749873541e-01
-7.766515673047467150e-01
-7.665087988478449521e-01
-7.540978811346779054e-01
-7.395497758956418588e-01
-7.229954448611327633e-01
-7.045658497615466809e-01
-6.843919523272798955e-01
-6.626047142887279140e-01
-6.393350973762876865e-01
-6.147140633203543869e-01
-5.888725738513246322e-01
-5.619415906995943732e-01
-5.340520755955597831e-01
-5.053349902696165907e-01
-4.759212964521612466e-01
-4.459419558735898126e-01
-4.155279302642979622e-01
-3.848101813546819794e-01
-3.539196708751379261e-01
-3.229873605560621419e-01
-2.921442050760009734e-01
-2.615032371726434546e-01
-2.311208519271609474e-01
-2.010422832213466238e-01
-1.713127649369936278e-01
-1.419775309558951315e-01
-1.130818151598443483e-01
-8.467085143063436681e-02
-5.678987365005834509e-02
-2.948411569990957298e-02
-2.798811461981039802e-03
2.322080518193392340e-02
4.852950035004229001e-02
7.308204016055078189e-02
9.683319073166635205e-02
1.197377181815957314e-01
1.417503886285445824e-01
1.628259681907222034e-01
1.829192229863341734e-01
2.019849191335873206e-01
2.199778227506885286e-01
2.368526999558445978e-01
2.525643168672623284e-01
2.670674396031485487e-01
2.803168342817102254e-01
2.922672670211540202e-01
3.028735039396868167e-01
3.120903111555156095e-01
3.198724547868470047e-01
3.261747009518881080e-01
3.309518157688453588e-01
3.341648101428487672e-01
3.358422008218632238e-01
3.360537556899733103e-01
3.348698337898212141e-01
3.323607941640496777e-01
3.285969958553010550e-01
3.236487979062179221e-01
3.175865593594427994e-01
3.104806392576179297e-01
3.024013966433861667e-01
2.934191905593896421e-01
2.836043800482712651e-01
2.730273241526731121e-01
2.617583819152379254e-01
2.498679123786080036e-01
2.374262745854259504e-01
2.245038275783342863e-01
2.111709303999754206e-01
1.974979420929919571e-01
1.835552217000262498e-01
1.694131282637208746e-01
1.551420208267182410e-01
1.408122584316609249e-01
1.264942001211913358e-01
1.122582049379520081e-01
9.817463192458550370e-02
8.431384012373417669e-02
7.074618857804058913e-02
5.754203633014787211e-02
4.477174242269725546e-02
3.250533824203147293e-02
2.078641138215164136e-02
9.613095587111089232e-03
-1.020958383925688094e-03
-1.112209977179431930e-02
-2.069667781733029385e-02
-2.975104176136923739e-02
-3.829154084474669512e-02
-4.632452430829826079e-02
-5.385634139285943450e-02
-6.089334133926588982e-02
-6.744187338835309908e-02
-7.350828678095666646e-02
-7.909893075791216144e-02
-8.422015456005513268e-02
-8.887830742822118435e-02
-9.307973860324585125e-02
-9.683079732596472367e-02
-1.001378328372133225e-01
-1.030071943778272797e-01
-1.054452311886421301e-01
-1.074582925104934222e-01
-1.090527275842167326e-01
-1.102348856506476515e-01
-1.110111159506217277e-01
-1.113877677249745096e-01
-1.113711902145416155e-01
-1.109677326601586078e-01
-1.101837443026609797e-01
-1.090255743828844048e-01
-1.074995721416643485e-01
-1.056138856358334738e-01
-1.033863114705216302e-01
-1.008378675224738813e-01
-9.798957391835652619e-02
-9.486245078483596105e-02
-9.147751824857848491e-02
-8.785579643625050783e-02
-8.401830547451830111e-02
-7.998606549004827482e-02
-7.578009660950672799e-02
-7.142141895956026498e-02
-6.693105266687474075e-02
-6.233001785811677353e-02
-5.763933465995263461e-02
-5.288002319904876181e-02
-4.807310360207146804e-02
-4.323959599568705237e-02
-3.840052050656190402e-02
-3.357689726136236369e-02
-2.878974638675477551e-02
-2.406008800940547671e-02
-1.940894225598082529e-02
-1.485732925314716193e-02
-1.042626912757082733e-02
-6.136782005918159540e-03
-2.009888014855534377e-03
1.933392718950747817e-03
5.672040068834298225e-03
9.185033908128798288e-03
1.245135411016789866e-02
1.545065145293099407e-02
1.817726318787679304e-02
2.063981105041916633e-02
2.284750726330019022e-02
2.480956404926193751e-02
2.653519363104647061e-02
2.803360823139586580e-02
2.931402007305220977e-02
3.038564137875755800e-02
3.125768437125400062e-02
3.193936127328359659e-02
3.243988430758841524e-02
3.276846569691056060e-02
3.293431766399208122e-02
3.294665243157503254e-02
3.281468222240153249e-02
3.254761925921361571e-02
3.215467576475337930e-02
3.164506396176287178e-02
3.102799607298420068e-02
3.031268432115942491e-02
2.950834092903058606e-02
2.862417811933980205e-02
2.766940811482918733e-02
2.665324313824069674e-02
2.558489541231646902e-02
2.447357715979857004e-02
2.332850060342907261e-02
2.215887796595004608e-02
2.097392147010357713e-02
1.978284128562682667e-02
1.859313099079171541e-02
1.740745195332819156e-02
1.622762144823840583e-02
1.505545675052453493e-02
1.389277513518874345e-02
1.274139387723319770e-02
1.160313025166005881e-02
1.047980153347150521e-02
9.373224997669689362e-03
8.285217919256786245e-03
7.217597573234964779e-03
6.172181234606386076e-03
5.150786178373216451e-03
4.155229679537623955e-03
3.187329013101780108e-03
2.248901454067841251e-03
1.341764277437981290e-03
4.677347582143646433e-04
-3.713698286008462767e-04
-1.173732208005473770e-03
-1.937535104997361495e-03
-2.660961244574339829e-03
-3.342193351734242673e-03
-3.979414151474902628e-03
-4.570806368794150774e-03
-5.114552728689826869e-03
-5.608835956159759391e-03
-6.051838776201785494e-03
-6.441743913813734526e-03
-6.776734093993440171e-03
-7.055270420596793275e-03
-7.278437176207293996e-03
-7.448759159754399055e-03
-7.568776035344154836e-03
-7.641027467082664101e-03
-7.668053119075988848e-03
-7.652392655430211889e-03
-7.596585740251417772e-03
-7.503172037645665891e-03
-7.374691211719063347e-03
-7.213682926577654787e-03
-7.022686846327555119e-03
-6.804242635074798581e-03
-6.560889956925512224e-03
-6.295168475985721615e-03
-6.009617856361563343e-03
-5.706777762159050832e-03
-5.389187857484330213e-03
-5.059387806443410573e-03
-4.719917273142438911e-03
-4.373315921687422579e-03
-4.022123416184511177e-03
-3.668879420739712058e-03
-3.316123599459176556e-03
-2.966395616448904652e-03
-2.622235135815053318e-03
-2.286181821663659831e-03
-1.960775338100767973e-03
-1.648555349232526477e-03
-1.352061519164945731e-03
-1.073813754119570894e-03
-8.151550892846647555e-04
-5.756093388042711348e-04
-3.545443993686965187e-04
-1.513281676683461924e-04
3.467145960646694661e-05
2.040865857653456769e-04
3.575493141179677766e-04
4.956917479739430176e-04
6.191459906429446110e-04
7.285441454345878984e-04
8.245183156585390166e-04
9.077006046244199752e-04
9.787231156418915983e-04
1.038217952020580124e-03
1.086817217070141931e-03
1.125153014100208895e-03
1.153857446420431540e-03
1.173562617340446297e-03
1.184900630169900219e-03
1.188503588218433205e-03
1.185003594795689058e-03
1.175032753211310496e-03
1.159223166774938502e-03
1.138206938796218178e-03
1.112616172584788340e-03
1.083082971450296476e-03
1.050239438702379666e-03
1.014717677650686916e-03
9.771497916048529214e-04
9.381678838745290735e-04
8.983301372215619397e-04
8.578430017299274596e-04
8.168084229797228923e-04
7.753283295317939293e-04
7.335046499469689146e-04
6.914393127860938649e-04
6.492342466099966904e-04
6.069913799795235163e-04
5.648126414555072403e-04
5.227999595987798927e-04
4.810552629701879239e-04
4.396804801305594069e-04
3.987775396407403040e-04
3.584483700615587426e-04
3.187948999538606307e-04
2.799190578784744752e-04
2.419227723962455879e-04
2.049079720680030989e-04
1.689765854545920219e-04
1.342305411168413245e-04
1.007717676155961423e-04
6.870219351168579513e-05
3.812374736595470050e-05
9.138357739233192984e-06
-1.815204680763551112e-05
-4.364553771382013189e-05
-6.724018641847809340e-05
-8.883406436077736525e-05
-1.083252429798763490e-04
-1.256117937149420520e-04
-1.405975516705548691e-04
-1.532922331034710370e-04
-1.637984419485552187e-04
-1.722219331390850889e-04
-1.786684616083344739e-04
-1.832437822895803981e-04
-1.860536501160972567e-04
-1.872038200211613153e-04
-1.868000469380479991e-04
-1.849480858000326791e-04
-1.817536915403912144e-04
-1.773226190923986778e-04
-1.717606233893314975e-04
-1.651734593644639602e-04
-1.576668819510732261e-04
-1.493466460824331482e-04
-1.403185066918210492e-04
-1.306882187125105654e-04
-1.205615370777793989e-04
-1.100442167209008879e-04
-9.924201257515284278e-05
-8.826067957380971316e-05
-7.720597265014593491e-05
-6.618364673743926433e-05
-5.529945676896303960e-05
-4.465915767799515253e-05
-3.436850439780885321e-05
-2.453325186168185050e-05
-1.525915500288776717e-05
-6.651968754703971578e-06
1.182645242538241069e-06
8.175347750901593825e-06
1.434804975710968787e-05
1.973676416206966664e-05
2.437750386669128075e-05
2.830628177188210221e-05
3.155911077855150725e-05
3.417200378760737114e-05
3.618097369995881260e-05
3.762203341651395422e-05
3.853119583818165046e-05
3.894447386587028819e-05
3.889788040048850501e-05
3.842742834294487754e-05
3.756913059414784687e-05
3.635900005500615224e-05
3.483304962642813310e-05
3.302729220932263033e-05
3.097774070459782076e-05
2.872040801316271468e-05
2.629130703592540082e-05
2.372645067379491995e-05
2.106185182767929644e-05
1.833352339848768966e-05
1.557747828712802908e-05
1.282972939450948594e-05
1.012628962154004732e-05
7.503171869128798906e-06
4.996389038183770123e-06
2.641954029614061055e-06
4.758797443277229448e-07
-1.469263149993199180e-06
-3.189320928319993594e-06
-4.694142235301512898e-06
-5.993673915440914771e-06
-7.097862813241983699e-06
-8.016655773207968842e-06
-8.759999639842560665e-06
-9.337841257649093877e-06
-9.760127471131181017e-06
-1.003680512479222795e-05
-1.017782106313578791e-05
-1.019312213066531759e-05
-1.009265517188431771e-05
-9.886367031296304256e-06
-9.584204553404711884e-06
-9.196114582713114168e-06
-8.732043963724918663e-06
-8.201939540943705719e-06
-7.615748158872862563e-06
-6.983416662016006814e-06
-6.314891894876501982e-06
-5.620120701957973310e-06
-4.909049927763766520e-06
-4.191626416797530571e-06
-3.477797013562602716e-06
-2.777508562562625560e-06
-2.100707908300947792e-06
-1.457341895281202912e-06
-8.573573680067425713e-07
-3.107011709811945539e-07
1.727993525106227387e-07
5.887690947746493163e-07
9.404211506873699786e-07
1.231529997354115523e-06
1.465870111880370379e-06
1.647215971371489062e-06
1.779342052932927940e-06
1.866022833670063130e-06
1.911032790688335544e-06
1.918146401093138447e-06
1.891138141989889883e-06
1.833782490484005564e-06
1.749853923680887652e-06
1.643126918685965411e-06
1.517375952604641637e-06
1.376375502542312774e-06
1.223900045604420581e-06
1.063724058896347948e-06
8.996220195235321884e-07
7.353684045913578858e-07
5.747376912052721997e-07
4.215043564706471152e-07
2.794428774929346619e-07
1.523277313775116951e-07
4.393339522982124476e-08
-4.196565384475146925e-08
-1.015949387407737932e-07
-1.311799823528465312e-07
-1.269463075755537584e-07
-8.511943730348209107e-08
-1.924894431223015946e-09
1.250041206330523713e-07
2.920869882859344436e-07
4.941726536322776689e-07
7.261100527538530348e-07
9.827481217325823802e-07
1.258935796650238996e-06
1.549522013588739214e-06
1.849355708629852938e-06
2.153285817855491736e-06
2.456161277347442240e-06
2.752831023187616652e-06
3.038143991457772383e-06
3.306949118239850646e-06
3.554095339615593180e-06
3.774431591666940353e-06
3.962806810475665244e-06
4.114069932123659092e-06
4.223069892692740716e-06
4.284655628264750533e-06
4.293676074921551832e-06
4.244980168744981642e-06
4.133416845816882076e-06
3.953835042219086773e-06
3.701083694033481894e-06
3.370011737341838397e-06
2.955468108226089028e-06
2.452301742768041171e-06
1.855361577049470021e-06
1.159496547152354064e-06
3.595555891583787086e-07
-5.488612386822460195e-07
-1.558441666127792211e-06
-2.652609023090603339e-06
-3.814533531003669184e-06
-5.027385411299575275e-06
-6.274334885411278992e-06
-7.538552174771425583e-06
-8.803207500812983437e-06
-1.005147108496852538e-05
-1.126651314867108418e-05
-1.243150391335322757e-05
-1.352961360044787568e-05
-1.454401243138773006e-05
-1.545787062760571931e-05
-1.625435841053446030e-05
-1.691664600160686465e-05
-1.742790362225570341e-05
-1.777130149391371373e-05
-1.793000983801370729e-05
-1.788719887598849240e-05
-1.762603882927086719e-05
-1.712969991929354170e-05
-1.638135236748948349e-05
-1.536416639529124674e-05
-1.406131222413179900e-05
-1.245596007544374866e-05
-1.053128017066025639e-05
-8.270442731213574852e-06
-5.656617978537091702e-06
-2.672976134062913904e-06
6.972110456565824726e-07
4.448464595980394318e-06
8.525419271086623373e-06
1.286590702062502940e-05
1.740775979424456389e-05
2.208880954159515579e-05
2.684688821232508743e-05
3.161982775608487731e-05
3.634546012252264172e-05
4.096161726128841806e-05
4.540613112203175581e-05
4.961683365440128289e-05
5.353155680804706377e-05
5.708813253261757730e-05
6.022439277776284053e-05
6.287816949313156946e-05
6.498729462837363885e-05
6.648960013313787989e-05
6.732291795707399116e-05
6.742508004983107490e-05
6.673391836105854508e-05
6.518726484040565303e-05
6.272295143752156877e-05
5.927881010205595020e-05
5.479267278365756077e-05
4.920237143197662760e-05
4.244573799666134491e-05
3.446060442736234640e-05
2.518480267372720288e-05
1.455616468540725278e-05
2.512522412049497710e-06
-1.098268503294691488e-05
-2.578005520254648682e-05
-4.164810638856063175e-05
-5.835499616815477831e-05
-7.566888211849212402e-05
-9.335792181673861756e-05
-1.111902728400567788e-04
-1.289340927656138305e-04
-1.463575391705717774e-04
-1.632287696320967852e-04
-1.793159417273511433e-04
-1.943872130335019387e-04
-2.082107411277111359e-04
-2.205546835871461200e-04
-2.311871979889677711e-04
-2.398764419103434473e-04
-2.463905729284369289e-04
-2.504977486204120504e-04
-2.519661265634338932e-04
-2.505638643346657767e-04
-2.460591195112737310e-04
-2.382200496704211569e-04
-2.268148123892730543e-04
-2.116115652449947486e-04
-1.923784658147473909e-04
-1.688836716757008871e-04
-1.408953404050124311e-04
-1.081816295798548292e-04
-7.051069677738440759e-05
-2.765069957477326798e-05
2.061728922950852358e-05
7.404762683448117607e-05
1.318120227048312921e-04
1.930452751995506266e-04
2.568821826776673703e-04
3.224575434981707912e-04
3.889061560200839573e-04
4.553628186024038073e-04
5.209623296041524876e-04
5.848394873843225459e-04
6.461290903019393812e-04
7.039659367159964085e-04
7.574848249855130637e-04
8.058205534694894839e-04
8.481079205269426114e-04
8.834817245168711738e-04
9.110767637982939565e-04
9.300278367302126144e-04
9.394697416716369341e-04
9.385372769815790873e-04
9.263652410190419215e-04
9.020884321430381507e-04
8.648416487125723572e-04
8.137596890866627842e-04
7.479773516243025215e-04
6.666294346845164261e-04
5.688507366262949855e-04
4.537760558086709715e-04
3.205401905906231624e-04
1.682779393311904011e-04
-3.875893038302131539e-06
-1.960596786835174269e-04
-4.056841796007450433e-04
-6.295204316488154902e-04
-8.643394706866228084e-04
-1.106912332573056594e-03
-1.354010053166937975e-03
-1.602403668327184684e-03
-1.848864213912619365e-03
-2.090162725782172652e-03
-2.323070239794643773e-03
-2.544357791808964011e-03
-2.750796417683951892e-03
-2.939157153278522221e-03
-3.106211034451500028e-03
-3.248729097061802285e-03
-3.363482376968258795e-03
-3.447241910029770484e-03
-3.496778732105166720e-03
-3.508863879053364908e-03
-3.480268386733207861e-03
-3.407763291003560943e-03
-3.288119627723317274e-03
-3.118108432751310125e-03
-2.894500741946460370e-03
-2.614067591167576129e-03
-2.273580016273594323e-03
-1.869809053123300951e-03
-1.399525737575673702e-03
-8.595011054894638805e-04
-2.465061927236621847e-04
4.444199550082267845e-04
1.241380007460723273e-03
2.188971137392185795e-03
3.332145097263379107e-03
4.715853639536072422e-03
6.385048516671132900e-03
8.384681481130119851e-03
1.075970428537413419e-02
1.355506868186461683e-02
1.681572642306233822e-02
2.058662926142960231e-02
2.491272894942654290e-02
2.983897723951548647e-02
3.541032588415640725e-02
4.167172663581238806e-02
4.866813124694271964e-02
5.644449147000925315e-02
6.504575905747481124e-02
7.451688576179849033e-02
8.490282333544380000e-02
9.624852353086930934e-02
1.085989381005391108e-01
1.219990187969121065e-01
1.364937173724519170e-01
1.521279855796166813e-01
1.689467751708712551e-01
1.869950378986733053e-01
2.063177255154878542e-01
2.269597897737724024e-01
2.489661824259920830e-01
2.723818623290834573e-01
2.972527692485271156e-01
3.236268169999958477e-01
3.515521561380531845e-01
3.810769372172534419e-01
4.122493107921600397e-01
4.451174274173266832e-01
4.797294376473187905e-01
5.161334920366866807e-01
5.543777411399981592e-01
5.945103355118036559e-01
6.365794257066708095e-01
6.806331622791498281e-01
7.267196957838089055e-01
7.748871767751964734e-01
8.251837558078813917e-01
8.776575834364124251e-01
9.323568102153597659e-01
9.893295866992704024e-01
1.048624063442714638e+00
1.110288391000240127e+00
1.174370719926418616e+00
1.240919200775792319e+00
1.309981984102939201e+00
1.381607220462400143e+00
1.455843060408750222e+00
1.532737654496532764e+00
1.612339153280313964e+00
1.694695707314660460e+00
1.779855467154115800e+00
1.867866583353256837e+00
1.958757650728121913e+00
2.052431920737697091e+00
2.148743182960354048e+00
2.247545106234735801e+00
2.348691359399438738e+00
2.452035611293105877e+00
2.557431530754333604e+00
2.664732786621763605e+00
2.773793047733993600e+00
2.884465982929665717e+00
2.996605261047376345e+00
3.110064550925769389e+00
3.224697521403439904e+00
3.340357841319033128e+00
3.456899179511140563e+00
3.574175204818409224e+00
3.692039586079435942e+00
3.810345992132861515e+00
3.928948091817280552e+00
4.047699553971341402e+00
4.166454047433634678e+00
4.285065241042807394e+00
4.403386803637452829e+00
4.521272404056216665e+00
4.638575711137692181e+00
4.755150393720525948e+00
4.870850120643310355e+00
4.985528560744691973e+00
5.099039382863264969e+00
5.211236255837672360e+00
5.321971674213218151e+00
5.431064059202390659e+00
5.538293299754536214e+00
5.643437214509392952e+00
5.746273622106719436e+00
5.846580341186210283e+00
5.944135190387626722e+00
6.038715988350706887e+00
6.130100553715204903e+00
6.218066705120823379e+00
6.302392261207318214e+00
6.382855040614427544e+00
6.459232861981889506e+00
6.531303543949459112e+00
6.598844905156839857e+00
6.661634764243787643e+00
6.719450939850041493e+00
6.772071250615348426e+00
6.819273515179424372e+00
6.860835552182020791e+00
6.896535180262871378e+00
6.926150218061724040e+00
6.949458484218304477e+00
6.966237797372354379e+00
6.976265976163612770e+00
6.979320839231820450e+00
6.975180205216709339e+00
6.963621892758022902e+00
6.944423720495496610e+00
6.917363507068864159e+00
6.882219086918889062e+00
6.838852191064629160e+00
6.787404385639931981e+00
6.728075510192519815e+00
6.661065404270159362e+00
6.586573907420582685e+00
6.504800859191528062e+00
6.415946099130713343e+00
6.320209466785922992e+00
6.217790801704875747e+00
6.108889943435311665e+00
5.993706731524949483e+00
5.872441005521574553e+00
5.745292604972906503e+00
5.612461369426685387e+00
5.474147138430621062e+00
5.330549751532513980e+00
5.181869048280073109e+00
5.028304868221044721e+00
4.870057050903128903e+00
4.707325435874138542e+00
4.540309862681778164e+00
4.369210170873789600e+00
4.194226199997912019e+00
4.015557789601849947e+00
3.833404779233416271e+00
3.647967008440318626e+00
3.459444316770294847e+00
3.268036543771044578e+00
3.073943528990389584e+00
2.877365111976032175e+00
2.678509787986961932e+00
2.477685938563230383e+00
2.275266040068238738e+00
2.071623621588499997e+00
1.867132212210569575e+00
1.662165341020959142e+00
1.457096537106313594e+00
1.252299329553145046e+00
1.048147247448009578e+00
8.450138198774189702e-01
6.432725759280180089e-01
4.432970446863178648e-01
2.454607552388758940e-01
5.013723667220437025e-02
-1.422999819270545085e-01
-3.314773714723880937e-01
-5.170214028772389669e-01
-6.985585470550915721e-01
-8.757152749193100050e-01
-1.048118057383377710e+00
-1.215393365360740274e+00
-1.377167669764873814e+00
-1.533067441509154305e+00
-1.682719151507058974e+00
-1.825749270672033742e+00
-1.961784269917549839e+00
-2.090450620156993455e+00
-2.211374792303837822e+00
-2.324183257271526415e+00
-2.428502485973525360e+00
-2.523960899212418951e+00
-2.610370823315485200e+00
-2.687876718101067208e+00
-2.756657926612126275e+00
-2.816893791891635246e+00
-2.868763656982531440e+00
-2.912446864927790369e+00
-2.948122758770371998e+00
-2.975970681553244734e+00
-2.996169976319356554e+00
-3.008899986111677638e+00
-3.014340053973169731e+00
-3.012669522946791911e+00
-3.004067736075507256e+00
-2.988714036402278840e+00
-2.966787766970066631e+00
-2.938468270821827488e+00
-2.903934891000532481e+00
-2.863366970549140689e+00
-2.816943852510611634e+00
-2.764844879927896404e+00
-2.707249395843979389e+00
-2.644336743301809900e+00
-2.576286265344351900e+00
-2.503277305014548926e+00
-2.425489205355395583e+00
-2.343101309409836741e+00
-2.256292960220835475e+00
-2.165243500831331325e+00
-2.070132274284328666e+00
-1.971138623622767039e+00
-1.868459323377901882e+00
-1.762390011646223442e+00
-1.653261137885155607e+00
-1.541403190367652831e+00
-1.427146657366693328e+00
-1.310822027155227998e+00
-1.192759788006286348e+00
-1.073290428192820167e+00
-9.527444359878068925e-01
-8.314522996641976471e-01
-7.097445074950233801e-01
-5.879515477532342160e-01
-4.664039087118077576e-01
-3.454320786436967938e-01
-2.253665458219296924e-01
-1.065377985194588401e-01
1.072367499073936803e-02
1.260873864356863994e-01
2.392228475424293954e-01
3.497995700379417650e-01
4.574870656492706633e-01
5.619548461034392650e-01
6.628724231274901735e-01
7.599093084484033200e-01
8.527350137932229179e-01
9.410190508889710870e-01
1.024430931462688932e+00
1.102640167241361269e+00
1.175316269952030979e+00
1.242128751321718738e+00
1.302756904734036381e+00
1.357113237203817269e+00
1.405348138554580295e+00
1.447622714216921569e+00
1.484098069621445193e+00
1.514935310198732177e+00
1.540295541379386846e+00
1.560339868594005974e+00
1.575229397273188781e+00
1.585125232847524934e+00
1.590188480747614763e+00
1.590580246404055043e+00
1.586461635247439883e+00
1.577993752708368502e+00
1.565337704217436121e+00
1.548654595205239293e+00
1.528105531102370129e+00
1.503851617339433844e+00
1.476053959347022326e+00
1.444873662555732130e+00
1.410471832396152037e+00
1.373009574298893032e+00
1.332647993694545230e+00
1.289548196013704739e+00
1.243871286686957012e+00
1.195778371144919250e+00
1.145430554818177793e+00
1.092988943137329194e+00
1.038614641532969118e+00
9.824687554356827945e-01
9.247123921557166559e-01
8.655091326478687730e-01
8.050299014304965750e-01
7.434469794748925775e-01
6.809326477523883758e-01
6.176591872342769296e-01
5.537988788918632999e-01
4.895240036964394470e-01
4.250068426193383542e-01
3.604196766318520373e-01
2.959347867052859460e-01
2.317244538109318186e-01
1.679609589201226660e-01
1.048165830041503932e-01
4.246360703432045663e-02
-1.892568801807455875e-02
-7.917902118170271064e-02
-1.381241114852718721e-01
-1.955886779574764478e-01
-2.514004396270226871e-01
-3.053871155225810208e-01
-3.573764246728582950e-01
-4.071960861065486159e-01
-4.546738188523567481e-01
-4.996373419389562587e-01
-5.419143743950525227e-01
-5.813326352493398685e-01
-6.177198435305200075e-01
-6.509037182672718913e-01
-6.807119784882983415e-01
-7.069723432222935200e-01
-7.295304838075727938e-01
-7.484121816860274112e-01
-7.637471437503189353e-01
-7.756663325363523098e-01
-7.843007105800340328e-01
-7.897812404172653844e-01
-7.922388845839533067e-01
-7.918046056160021884e-01
-7.886093660493164181e-01
-7.827841284198019389e-01
-7.744598552633634725e-01
-7.637675091159056295e-01
-7.508380525133331318e-01
-7.358024479915478144e-01
-7.187916580864607274e-01
-6.999366453339738170e-01
-6.793683722699916938e-01
-6.572178014304144167e-01
-6.336158953511564773e-01
-6.086936165681177124e-01
-5.825819276172032879e-01
-5.554117910343122633e-01
-5.273141693553610176e-01
-4.984200251162484441e-01
-4.688603208528794863e-01
-4.387660191011527044e-01
-4.082680823969858652e-01
-3.774974732762770291e-01
-3.465851542749314174e-01
-3.156620879288469239e-01
-2.848587854502079852e-01
-2.542749907897818296e-01
-2.239605078188211529e-01
-1.939605702032772827e-01
-1.643204116091207534e-01
-1.350852657023030590e-01
-1.063003661487816054e-01
-7.801094661450830303e-02
-5.026224076545279806e-02
-2.309948226756699738e-02
3.432095213191513512e-03
2.928725801087056491e-02
5.442077245950112385e-02
7.878740489313124096e-02
1.023419216458031078e-01
1.250390890515638564e-01
1.468336734444459224e-01
1.676804411584966459e-01
1.875341585277581768e-01
2.063495918862767731e-01
2.240815075680865631e-01
2.406846719072340823e-01
2.561138512377615362e-01
2.703238118937111301e-01
2.832693202091279838e-01
2.949051425180485020e-01
3.051860451545181374e-01
3.140667944525790678e-01
3.215021567462749696e-01
3.274468983696449675e-01
3.318557856567330155e-01
3.346987838371042190e-01
3.360222778169772995e-01
3.358966181281528574e-01
3.343921637554408965e-01
3.315792736836509769e-01
3.275283068975916589e-01
3.223096223820741679e-01
3.159935791219073420e-01
3.086505361019006854e-01
3.003508523068619818e-01
2.911648867216043435e-01
2.811629983309355540e-01
2.704155461196651178e-01
2.589928890726002630e-01
2.469653861745553236e-01
2.344033964103374446e-01
2.213772787647561580e-01
2.079573922226182481e-01
1.942140957687389369e-01
1.802177483879248421e-01
1.660387090649856345e-01
1.517473367847277377e-01
1.374139905319669008e-01
1.231090292915095474e-01
1.089028120481652651e-01
9.486569778674064368e-02
8.106804549205118282e-02
6.758021414890354184e-02
5.447256274210711402e-02
4.181545025646871139e-02
2.967731162371396031e-02
1.808831645399110177e-02
7.043426710268039896e-03
-3.463706832794512160e-03
-1.343943340053790209e-02
-2.289010221829717098e-02
-3.182206251141373593e-02
-4.024166350522692670e-02
-4.815525442507763432e-02
-5.556918449630176421e-02
-6.248980294424032883e-02
-6.892345899423261979e-02
-7.487650187161914994e-02
-8.035528080173662269e-02
-8.536614500992567578e-02
-8.991544372152557307e-02
-9.400952616187639721e-02
-9.765474155631570508e-02
-1.008574391301837320e-01
-1.036239681088197001e-01
-1.059606777175633591e-01
-1.078739171817530151e-01
-1.093700357267284456e-01
-1.104553825778289838e-01
-1.111363069603939907e-01
-1.114191580997624248e-01
-1.113102852212737859e-01
-1.108160375502673795e-01
-1.099427643120821779e-01
-1.086968147320578892e-01
-1.070845447188415872e-01
-1.051159043082222494e-01
-1.028103573884823069e-01
-1.001889240904412781e-01
-9.727262454491732158e-02
-9.408247888272892878e-02
-9.063950723469388349e-02
-8.696472973163230091e-02
-8.307916650436197870e-02
-7.900383768370149162e-02
-7.475976340046847080e-02
-7.036796378548329511e-02
-6.584945896956360956e-02
-6.122526908352803748e-02
-5.651641425819406428e-02
-5.174391462438229089e-02
-4.692879031291026515e-02
-4.209206145459656878e-02
-3.725474818025974882e-02
-3.243787062071732535e-02
-2.766244890678995483e-02
-2.294950316929514345e-02
-1.832005353905144865e-02
-1.379512014687647725e-02
-9.395723123590727852e-03
-5.142882600011764761e-03
-1.057618706958186622e-03
2.839048424752302607e-03
6.526098664299423771e-03
9.982511880865508475e-03
1.318726794363199797e-02
1.612145310967919368e-02
1.878462711105161054e-02
2.118592126810520809e-02
2.333454780469465528e-02
2.523971894467495758e-02
2.691064691189997554e-02
2.835654393022480485e-02
2.958662222350407975e-02
3.061009401559267040e-02
3.143617153034478778e-02
3.207406699161533675e-02
3.253299262325894808e-02
3.282216064913035664e-02
3.295078329308406828e-02
3.292807277897483176e-02
3.276324133065728478e-02
3.246550117198602342e-02
3.204406452681582418e-02
3.150814361900130395e-02
3.086695067239709697e-02
3.012969791085770219e-02
2.930559755823808343e-02
2.840386183839277434e-02
2.743370297517639181e-02
2.640433319244339661e-02
2.532496471404887053e-02
2.420480976384725702e-02
2.305308056569321459e-02
2.187898934344139484e-02
2.069174832094618915e-02
1.950051429091989585e-02
1.831159532916964983e-02
1.712713847484611737e-02
1.594896100265310104e-02
1.477888018729514932e-02
1.361871330347606476e-02
1.247027762589989625e-02
1.133539042927045153e-02
1.021586898829226521e-02
9.113530577669151991e-03
8.030192472105152079e-03
6.967671946304094047e-03
5.927786274970486477e-03
4.912352732808148402e-03
3.923188594521128704e-03
2.962111134813276338e-03
2.030937628389056521e-03
1.131485349952304547e-03
2.655715742070776470e-04
-5.649864241427529979e-04
-1.358371370392778658e-03
-2.112765989839130321e-03
-2.826353007777756502e-03
-3.497315149504752300e-03
-4.123835140315770462e-03
-4.704095705506915193e-03
-5.236279570374132407e-03
-5.718569460213471234e-03
-6.149148100320674624e-03
-6.526198215991800382e-03
-6.847902532522801358e-03
-7.113093336738187701e-03
-7.323501850673136589e-03
-7.481667703117932805e-03
-7.590130558098778617e-03
-7.651430079641875423e-03
-7.668105931773396000e-03
-7.642697778519559094e-03
-7.577745283906560034e-03
-7.475788111960569859e-03
-7.339365926707831604e-03
-7.171018392174527585e-03
-6.973285172386852263e-03
-6.748705931371002699e-03
-6.499820333153125650e-03
-6.229168041759520526e-03
-5.939288721216337552e-03
-5.632722035549773791e-03
-5.312007648785956049e-03
-4.979685224951221033e-03
-4.638294428071698151e-03
-4.290374922173587069e-03
-3.938466371283009387e-03
-3.585108439426310922e-03
-3.232840790629617610e-03
-2.884203088919126516e-03
-2.541734998320962276e-03
-2.207976182861469839e-03
-1.885466306566775793e-03
-1.576745033463072430e-03
-1.284352027576501302e-03
-1.010728316826422970e-03
-7.566581507729167261e-04
-5.215510382353674354e-04
-3.047748759254910542e-04
-1.056975605551429133e-04
7.631301116396551688e-05
2.418889425200722689e-04
3.916623368014461397e-04
5.262652972962626307e-04
6.463299272927931815e-04
7.524883300792768953e-04
8.453726089439717950e-04
9.256148671750758384e-04
9.938472080608493249e-04
1.050701734889530978e-03
1.096810550949368739e-03
1.132805759528581271e-03
1.159319463915418251e-03
1.176983767398118511e-03
1.186430773264921966e-03
1.188292584804063329e-03
1.183201305303784034e-03
1.171789038052322915e-03
1.154687886337919019e-03
1.132529953448805108e-03
1.105947342673230423e-03
1.075572157299428590e-03
1.042036500615638661e-03
1.005972475910091660e-03
9.680121864710413814e-04
9.287872259788709610e-04
8.887862908863383704e-04
8.481601492775659324e-04
8.070107297191436583e-04
7.654399607776348879e-04
7.235497710196120685e-04
6.814420890116378894e-04
6.392188433203026873e-04
5.969819625121699103e-04
5.548333751538116806e-04
5.128750098117912295e-04
4.712087950526981346e-04
4.299366594430963323e-04
3.891605315495577275e-04
3.489823399386459313e-04
3.095040131769504670e-04
2.708274798310346745e-04
2.330546684674708114e-04
1.962875076528231661e-04
1.606279259536800153e-04
1.261778519366052410e-04
9.303921416817111415e-05
6.131394121494308889e-05
3.110396164350708362e-05
2.511204020428322073e-06
-2.436240308772107043e-05
-4.941493111437403042e-05
-7.254445149294771252e-05
-9.364903565687543951e-05
-1.126267550395851369e-04
-1.293756810745079217e-04
-1.438107725777501946e-04
-1.559770425159584875e-04
-1.659799124304108398e-04
-1.739251372559210513e-04
-1.799184719272979073e-04
-1.840656713793557223e-04
-1.864724905469066971e-04
-1.872446843647630863e-04
-1.864880077677367922e-04
-1.843082156906405847e-04
-1.808110630682865558e-04
-1.761023048354870958e-04
-1.702876959270531042e-04
-1.634729912777992480e-04
-1.557639458225367791e-04
-1.472663144960779252e-04
-1.380858522332329081e-04
-1.283283139688179398e-04
-1.180994546376434862e-04
-1.075050291745217342e-04
-9.665079251426252625e-05
-8.564249959168296887e-05
-7.458590534159293154e-05
-6.358676469880469612e-05
-5.275083259812822696e-05
-4.218386397438050184e-05
-3.199161376237139026e-05
-2.227983689691311986e-05
-1.315428831281618692e-05
-4.720722944896720510e-06
2.916561974282131507e-06
9.711600245091245193e-06
1.569517601743170370e-05
2.090330219262126113e-05
2.537199167198154971e-05
2.913725735683298025e-05
3.223511214849638707e-05
3.470156894829079525e-05
3.657264065753726271e-05
3.788434017755605798e-05
3.867268040966765963e-05
3.897367425519205833e-05
3.882333461544973944e-05
3.825767439176105955e-05
3.731270648544609067e-05
3.602444379782554853e-05
3.442889923021958645e-05
3.256208568394853393e-05
3.046001606033267979e-05
2.815870326069185888e-05
2.569416018634735612e-05
2.310239973861902670e-05
2.041943481882718315e-05
1.768127832829153155e-05
1.492394316833360081e-05
1.218344224027309361e-05
9.495788445430361461e-06
6.896994685125131630e-06
4.423073860678880489e-06
2.110038873411324283e-06
-6.097375572301736145e-09
-1.897052002118604696e-06
-3.565181528735353867e-06
-5.020432800036788133e-06
-6.272752660636746124e-06
-7.332087955149246463e-06
-8.208385528187660217e-06
-8.911592224366060642e-06
-9.451654888298266887e-06
-9.838520364598173483e-06
-1.008213549787943610e-05
-1.019244713275597130e-05
-1.017940211384161262e-05
-1.005294728575013770e-05
-9.823029493095424147e-06
-9.499595580491278392e-06
-9.092592392551525514e-06
-8.611966773889878781e-06
-8.067665569120363169e-06
-7.469635622856713121e-06
-6.827823779712749479e-06
-6.152176884302142313e-06
-5.452641781239007230e-06
-4.739165315137029546e-06
-4.021694330610025868e-06
-3.310175672271671348e-06
-2.614556184736096839e-06
-1.944782712616969024e-06
-1.310802100528105355e-06
-7.225611930833391674e-07
-1.900068348963752588e-07
2.774356184476430036e-07
6.778154434557287170e-07
1.014772442284979779e-06
1.292081092070432805e-06
1.513515869946936738e-06
1.682851253049532267e-06
1.803861718513200791e-06
1.880321743472921803e-06
1.916005805063644089e-06
1.914688380420358153e-06
1.880143946678039889e-06
1.816146980971648670e-06
1.726471960436185800e-06
1.614893362206618702e-06
1.485185663417918185e-06
1.341123341205024991e-06
1.186480872702985737e-06
1.025032735046733967e-06
8.605534053712539352e-07
6.968173608114786542e-07
5.375990785024580256e-07
3.866730355791312016e-07
2.478137091764685691e-07
1.247955764294271739e-07
2.139311447302843625e-08
-5.861919955777673878e-08
-1.114668885280156353e-07
-1.333754753027113020e-07
-1.205704827468853055e-07
-6.927743372556429460e-08
2.426255720959400610e-08
1.611771694036359938e-07
3.370244185091520026e-07
5.466532406001008089e-07
7.849125717503957667e-07
1.046651348034035463e-06
1.326718505524823984e-06
1.619962980296729318e-06
1.921233708423691184e-06
2.225379625979677462e-06
2.527249669038504628e-06
2.821692773674142469e-06
3.103557875960528162e-06
3.367693911971573050e-06
3.608949817781251155e-06
3.822174529463402246e-06
4.002216983091974088e-06
4.143926114740915715e-06
4.242150860484138471e-06
4.291740156395551156e-06
4.287542938549100689e-06
4.224408143018697564e-06
4.097184705878238726e-06
3.900721563201684643e-06
3.629867651062959364e-06
3.279471905536003877e-06
2.844383262694577907e-06
2.319450658612851140e-06
1.699523029364632428e-06
9.794493110238475123e-07
1.540784396642476471e-07
-7.796704496031315905e-07
-1.810826956782180762e-06
-2.922580354837959394e-06
-4.098100865201268426e-06
-5.320558709302432658e-06
-6.573124108572284687e-06
-7.838967284441482198e-06
-9.101258458340978489e-06
-1.034316785170093827e-05
-1.154786568595221659e-05
-1.269852218252555160e-05
-1.377830756285182882e-05
-1.477039204836122231e-05
-1.565794586048466501e-05
-1.642413922065278498e-05
-1.705214235029646605e-05
-1.752512547084600930e-05
-1.782625880373225115e-05
-1.793871257038590265e-05
-1.784565699223755964e-05
-1.753026229071793656e-05
-1.697569868725770040e-05
-1.616513640328751819e-05
-1.508174566023808062e-05
-1.370869667953971251e-05
-1.202915968262366022e-05
-1.002630489092033326e-05
-7.683302525860412189e-06
-4.983322808873954135e-06
-1.909535961392764517e-06
1.553806649207374982e-06
5.387900392225504156e-06
9.532956330169498724e-06
1.392680641268641366e-05
1.850728258942613389e-05
2.321221681003720260e-05
2.797944102416930991e-05
3.274678718146934901e-05
3.745208723158709977e-05
4.203317312417101392e-05
4.642787680887103398e-05
5.057403023533384986e-05
5.440946535320951926e-05
5.787201411214629062e-05
6.089950846179399127e-05
6.342978035179981254e-05
6.540066173181329715e-05
6.674998455148299170e-05
6.741558076045825595e-05
6.733528230838678268e-05
6.644692114491813494e-05
6.468832921970068314e-05
6.199733848238294677e-05
5.831178088261439402e-05
5.356948837004342240e-05
4.770829289431897154e-05
4.066602640508793463e-05
3.238052085200212443e-05
2.278960818470908466e-05
1.183112035285728060e-05
-5.571069181158325304e-07
-1.438172574934905381e-05
-2.945390233904258742e-05
-4.554179426436071265e-05
-6.241355910247108074e-05
-7.983735443053083800e-05
-9.758133782570818963e-05
-1.154136668651671734e-04
-1.331024991260722744e-04
-1.504159921855911081e-04
-1.671223036208819798e-04
-1.829895910091111091e-04
-1.977860119274439297e-04
-2.112797239530472306e-04
-2.232388846630800486e-04
-2.334316516347090102e-04
-2.416261824450986815e-04
-2.475906346714149301e-04
-2.510931658908185276e-04
-2.519019336804760459e-04
-2.497850956175516179e-04
-2.445108092792084003e-04
-2.358472322426129111e-04
-2.235625220849285781e-04
-2.074248363833192089e-04
-1.872023327149455749e-04
-1.626631686569793983e-04
-1.335755017865817760e-04
-9.970748968091722002e-05
-6.082728991714059317e-05
-1.670306007243332110e-05
3.284672391956322118e-05
8.738283532622570895e-05
1.460478812049677798e-04
2.079766599147703601e-04
2.723039698146569650e-04
3.381646092636357548e-04
4.046933766207267617e-04
4.710250702449099566e-04
5.362944884952144248e-04
5.996364297306416586e-04
6.601856923102184665e-04
7.170770745929227596e-04
7.694453749377775514e-04
8.164253917037937128e-04
8.571519232499855839e-04
8.907597679353458208e-04
9.163837241188914741e-04
9.331585901596324388e-04
9.402191644165741645e-04
9.367002452487261125e-04
9.217366310150974188e-04
8.944631200747010140e-04
8.540145107865370353e-04
7.995256015096068123e-04
7.301311906029433335e-04
6.449660764255421824e-04
5.431650573364124948e-04
4.238629316945345671e-04
2.861944978589702274e-04
1.292945541887019403e-04
-4.769033348299061084e-05
-2.443010180416632605e-04
-4.575868883798703247e-04
-6.843189803565037166e-04
-9.212683298304421902e-04
-1.165205972660619252e-03
-1.412902944705791411e-03
-1.661130281824873363e-03
-1.906659019876752589e-03
-2.146260194720332835e-03
-2.376704842214391860e-03
-2.594763998217843818e-03
-2.797208698589572721e-03
-2.980809979188466918e-03
-3.142338875873329322e-03
-3.278566424503069100e-03
-3.386263660936566361e-03
-3.462201621032681698e-03
-3.503151340650273535e-03
-3.505883855648218514e-03
-3.467170201885398911e-03
-3.383781415220638022e-03
-3.252488531512873204e-03
-3.070062586620946402e-03
-2.833274616403716473e-03
-2.538895656719995439e-03
-2.183696743428782672e-03
-1.764448912388891927e-03
-1.277923199459181196e-03
-7.208906404984130600e-04
-9.012227136567709657e-05
6.221311897907792808e-04
1.450737864183377539e-03
2.440632870437563912e-03
3.636767961014863992e-03
5.084094888376255311e-03
6.827565404983031334e-03
8.912131263296506345e-03
1.138274421577840576e-02
1.428435601488898393e-02
1.766191841309043900e-02
2.156038316284331763e-02
2.602470201661026203e-02
3.109982672685090987e-02
3.683070904602685908e-02
4.326230072659968673e-02
5.043955352103241668e-02
5.840741918178304209e-02
6.721084946131425375e-02
7.689479611208756282e-02
8.750421088656627766e-02
9.908404553720731589e-02
1.116792518164741732e-01
1.253347814768280277e-01
1.400955862707335409e-01
1.560066179506454098e-01
1.731128282690281017e-01
1.914591689783431971e-01
2.110905918310557183e-01
2.320520485796190580e-01
2.543884909764980162e-01
2.781449276099868251e-01
3.033678476691201720e-01
3.301053241932720983e-01
3.584055077370059128e-01
3.883165488548798727e-01
4.198865981014597848e-01
4.531638060312926930e-01
4.881963231989417951e-01
5.250323001589674021e-01
5.637198874659367087e-01
6.043072356743912632e-01
6.468424953388992593e-01
6.913738170140176775e-01
7.379493512543077172e-01
7.866172486143362397e-01
8.374256596486431281e-01
8.904227349117966872e-01
9.456566249583571171e-01
1.003175480342894277e+00
1.063027451619942942e+00
1.125260689344073750e+00
1.189923344069845790e+00
1.257063566351833694e+00
1.326729506744565024e+00
1.398969315802614410e+00
1.473831144080541833e+00
1.551363142132920370e+00
1.631613460514277136e+00
1.714630249779187432e+00
1.800461660482209680e+00
1.889155825262331723e+00
1.980719881718788988e+00
2.075032569055532239e+00
2.171947556111180511e+00
2.271318511724377043e+00
2.372999104733696019e+00
2.476843003977779567e+00
2.582703878295248945e+00
2.690435396524744505e+00
2.799891227504841762e+00
2.910925040074181069e+00
3.023390503071383684e+00
3.137141285335093066e+00
3.252031055703879847e+00
3.367913483016389264e+00
3.484642236111239466e+00
3.602070983827076578e+00
3.720053395002467678e+00
3.838443138476059779e+00
3.957093883086472808e+00
4.075859297672350223e+00
4.194593051072260437e+00
4.313148812124850018e+00
4.431380249668738003e+00
4.549141032542544316e+00
4.666284829584912863e+00
4.782665309634413831e+00
4.898136141529692011e+00
5.012550994109366442e+00
5.125763536212080140e+00
5.237627436676406845e+00
5.347992211977619981e+00
5.456662972266288492e+00
5.563417912901840623e+00
5.668034852523970102e+00
5.770291609772438157e+00
5.869966003286981149e+00
5.966835851707359417e+00
6.060678973673269354e+00
6.151273187824467747e+00
6.238396312800696286e+00
6.321826167241707317e+00
6.401340569787205226e+00
6.476717339076944135e+00
6.547734293750662182e+00
6.614169252448114378e+00
6.675800033809007772e+00
6.732404456473092935e+00
6.783760339080112445e+00
6.829645500269811542e+00
6.869837758681908824e+00
6.904114932956151307e+00
6.932254841732278017e+00
6.954035303650032418e+00
6.969234137349140212e+00
6.977629161469348418e+00
6.978998194650390730e+00
6.973119055532006172e+00
6.959769562753934657e+00
6.938727534955914322e+00
6.909770790777681526e+00
6.872679007832687148e+00
6.827378200330076474e+00
6.774043861630044461e+00
6.712875831280333827e+00
6.644073948828667753e+00
6.567838053822817379e+00
6.484367985810511215e+00
6.393863584339487538e+00
6.296524688957488181e+00
6.192551139212230105e+00
6.082142774651497774e+00
5.965499434823009928e+00
5.842820959274509285e+00
5.714307187553708367e+00
5.580157959208400520e+00
5.440573113786300041e+00
5.295752490835147874e+00
5.145895929902653876e+00
4.991203270536619385e+00
4.831874352284755147e+00
4.668109014694802106e+00
4.500107097314463900e+00
4.328068439691552527e+00
4.152192881373774291e+00
3.972680261908869248e+00
3.789730420844538372e+00
3.603543197728599434e+00
3.414318432108756518e+00
3.222255963532749234e+00
3.027555631548275006e+00
2.830417275703159596e+00
2.631062247679827770e+00
2.429826222763524779e+00
2.227082705823794750e+00
2.023205225947194652e+00
1.818567312220279453e+00
1.613542493729604343e+00
1.408504299561726958e+00
1.203826258803203153e+00
9.998819005405006344e-01
7.970447538603514515e-01
5.956883478492247530e-01
3.961862115936756190e-01
1.989118741802597401e-01
4.238864695534368121e-03
-1.874592877739445496e-01
-3.758090541416218011e-01
-5.604369053210196405e-01
-7.409693122254230602e-01
-9.170327457683542516e-01
-1.088253676863260688e+00
-1.254258576423582738e+00
-1.414673915362766543e+00
-1.569126164594255357e+00
-1.717241795031493323e+00
-1.858647277587923918e+00
-1.992969083177047906e+00
-2.119833682712192413e+00
-2.238867547106861089e+00
-2.349697147274498299e+00
-2.451948954128548408e+00
-2.545261928105887694e+00
-2.629544647273738267e+00
-2.704965856143408676e+00
-2.771704897757888642e+00
-2.829941115160079068e+00
-2.879853851392973674e+00
-2.921622449499534202e+00
-2.955426252522723285e+00
-2.981444603505501778e+00
-2.999856845490830093e+00
-3.010842321521671305e+00
-3.014580374640987603e+00
-3.011250347891737178e+00
-3.001031584316882661e+00
-2.984103426959388461e+00
-2.960645218862215433e+00
-2.930836303068324433e+00
-2.894856022620677205e+00
-2.852883720562237713e+00
-2.805098739935942831e+00
-2.751680423784796936e+00
-2.692808115151742232e+00
-2.628661157079739574e+00
-2.559418892611751151e+00
-2.485260664790739149e+00
-2.406365816659664869e+00
-2.322913691261490499e+00
-2.235083631639136481e+00
-2.143054980835643608e+00
-2.047007081893934100e+00
-1.947119323129574919e+00
-1.843606453173373350e+00
-1.736781885757614941e+00
-1.626976109155278793e+00
-1.514519611639341123e+00
-1.399742881482779477e+00
-1.282976406958521665e+00
-1.164550676339645152e+00
-1.044796177899077305e+00
-9.240433999097965589e-01
-8.026228306447799055e-01
-6.808649583770051139e-01
-5.591002713794490653e-01
-4.376592579250895287e-01
-3.168724062868526481e-01
-1.970702047378196931e-01
-7.858314155091608577e-02
3.825829500088092500e-02
1.531236166445933966e-01
2.656823351072442607e-01
3.756039621158555608e-01
4.825580093974497498e-01
5.862139886790939114e-01
6.862414116877206816e-01
7.823097901503973661e-01
8.740886357941470841e-01
9.612474603459923994e-01
1.043455775532955876e+00
1.120383093082059300e+00
1.191698924720326236e+00
1.257072782174804670e+00
1.316205982589363055e+00
1.369096463612498260e+00
1.415903708725084531e+00
1.456788823357720863e+00
1.491912912941000924e+00
1.521437082905522153e+00
1.545522438681881106e+00
1.564330085700681217e+00
1.578021129392502608e+00
1.586756675187950716e+00
1.590697828517622536e+00
1.590005694812113735e+00
1.584841379502021086e+00
1.575365988017941143e+00
1.561740625790470016e+00
1.544126398250204257e+00
1.522684410827730206e+00
1.497575768953663289e+00
1.468961578058590733e+00
1.437002943573109759e+00
1.401860970927815142e+00
1.363696765553305879e+00
1.322671432880176301e+00
1.278946078339022741e+00
1.232681807360422432e+00
1.184039725375011454e+00
1.133180937813365929e+00
1.080266550106083079e+00
1.025457667683759899e+00
9.689153959769908342e-01
9.108009119480722227e-01
8.512795618420418986e-01
7.905230847552200402e-01
7.287037616589647770e-01
6.659938735245560792e-01
6.025657013232987858e-01
5.385915260264992899e-01
4.742436286054624861e-01
4.096942900314942682e-01
3.451157912758998081e-01
2.806804133099571330e-01
2.165604371050275090e-01
1.529281436323886578e-01
8.995581386334575158e-02
2.781572876920483314e-02
-3.331983067872877624e-02
-9.327858350914965124e-02
-1.518882487507521861e-01
-2.089765454322550786e-01
-2.643711925823034603e-01
-3.178999092296166395e-01
-3.693904144028893333e-01
-4.186704271308159808e-01
-4.655676664420908550e-01
-5.099098513654083398e-01
-5.515247009294632630e-01
-5.902399341629499530e-01
-6.258832700945774485e-01
-6.582824277530093804e-01
-6.872651261669563416e-01
-7.126590843651126050e-01
-7.343347121211695194e-01
-7.523636986727985088e-01
-7.668769982789591655e-01
-7.780055734755564334e-01
-7.858803867984980318e-01
-7.906324007836817991e-01
-7.923925779670168978e-01
-7.912918808844082719e-01
-7.874612720717603098e-01
-7.810317140649781775e-01
-7.721341693999665967e-01
-7.608996006126306222e-01
-7.474589702388685364e-01
-7.319432408145967184e-01
-7.144833748757151159e-01
-6.952103349581285618e-01
-6.742550835977414447e-01
-6.517485833304587084e-01
-6.278217966921855187e-01
-6.026056862188265972e-01
-5.762312144462751196e-01
-5.488293439104584559e-01
-5.205310371472711140e-01
-4.914672566926168162e-01
-4.617689650824011727e-01
-4.315671248525287940e-01
-4.009926985389046239e-01
-3.701766486774333287e-01
-3.392499378040065849e-01
-3.083435284545559263e-01
-2.775859643518353015e-01
-2.470619278627028959e-01
-2.168179271540532915e-01
-1.868991958918442275e-01
-1.573509677420333597e-01
-1.282184763705785380e-01
-9.954695544343733493e-02
-7.138163862655554082e-02
-4.376775958591522242e-02
-1.675055198746179183e-02
9.624750502847039674e-03
3.531291421905355388e-02
6.026870549519988685e-02
8.444689066532844179e-02
1.078022360634814519e-01
1.302895080237107261e-01
1.518634728800391243e-01
1.724788969665187188e-01
1.920905466171918818e-01
2.106531881661008743e-01
2.281215879472878461e-01
2.444505122947951969e-01
2.595947275426652157e-01
2.735090000249458808e-01
2.861480960756672132e-01
2.974667820288781073e-01
3.074198242186206853e-01
3.159619889789372360e-01
3.230480426438699926e-01
3.286327515474611327e-01
3.326709625651000368e-01
3.351473569368000338e-01
3.361209195085334001e-01
3.356620092651111387e-01
3.338409851913428650e-01
3.307282062720381943e-01
3.263940314920063535e-01
3.209088198360571242e-01
3.143429302890001775e-01
3.067667218356412984e-01
2.982505534607968189e-01
2.888647841492731905e-01
2.786797728858798062e-01
2.677658786554263370e-01
2.561934604427223983e-01
2.440328772325774109e-01
2.313544880098009349e-01
2.182286517591969788e-01
2.047257274655861492e-01
1.909160741137725104e-01
1.768700506885657053e-01
1.626580161747752384e-01
1.483503295572106417e-01
1.340173498206815028e-01
1.197294359499972427e-01
1.055569469299676155e-01
9.157024174539590833e-02
7.783967938110415707e-02
6.443561882189544066e-02
5.142841905257951318e-02
3.888843905796589284e-02
2.688022396421509835e-02
1.542080063888429109e-02
4.503977452086854218e-03
-5.876594821520963845e-03
-1.572726540726935435e-02
-2.505438353050227010e-02
-3.386429841655896195e-02
-4.216335929077869721e-02
-4.995791537850077096e-02
-5.725431590506448176e-02
-6.405891009580906570e-02
-7.037804717607649974e-02
-7.621807637120053824e-02
-8.158534690652329002e-02
-8.648620800738411607e-02
-9.092700889912219697e-02
-9.491409880707686597e-02
-9.845382695658744243e-02
-1.015525425729930792e-01
-1.042165948816342336e-01
-1.064523331078478241e-01
-1.082661064769744053e-01
-1.096642642143532687e-01
-1.106531555453236365e-01
-1.112391296952248421e-01
-1.114285358893961353e-01
-1.112277233531768078e-01
-1.106430413119057904e-01
-1.096808389909228743e-01
-1.083474656155672122e-01
-1.066494013242548916e-01
-1.045989854228546317e-01
-1.022166465083945569e-01
-9.952340471169328351e-02
-9.654028016356937247e-02
-9.328829299484137083e-02
-8.978846333632628518e-02
-8.606181131884568791e-02
-8.212935707321672441e-02
-7.801212073025785843e-02
-7.373112242078776191e-02
-6.930738227562492637e-02
-6.476192042558792661e-02
-6.011575700149531659e-02
-5.538991213416360332e-02
-5.060540595441544859e-02
-4.578325859306738022e-02
-4.094449018093795911e-02
-3.611012084884573231e-02
-3.130117072760929542e-02
-2.653865994804714343e-02
-2.184360864097789623e-02
-1.723703693721811286e-02
-1.273996496759036146e-02
-8.373412862911162879e-03
-4.158400753999111008e-03
-1.159487716727468018e-04
3.732922953249366658e-03
7.367194289948671496e-03
1.076584510760662285e-02
1.390785527540593092e-02
1.677701713280310009e-02
1.937727099278526571e-02
2.171782906152053272e-02
2.380790356286356310e-02
2.565670672066901192e-02
2.727345075879151690e-02
2.866734790108576431e-02
2.984761037140683942e-02
3.082345039360840505e-02
3.160408019154566789e-02
3.219871198907326565e-02
3.261655801004588462e-02
3.286683047831814863e-02
3.295874161774473010e-02
3.290150365218028755e-02
3.270432880547945870e-02
3.237642930149674247e-02
3.192701736408708191e-02
3.136530521710501757e-02
3.070050508440519063e-02
2.994182918984227351e-02
2.909848975727091433e-02
2.817969901054576815e-02
2.719466917352149002e-02
2.615261247005227010e-02
2.506274112399367593e-02
2.393426735919991846e-02
2.277640339952564930e-02
2.159836146882552696e-02
2.040935379095420998e-02
1.921833596410483375e-02
1.803031053898771982e-02
1.684717806453970776e-02
1.567075581546588381e-02
1.450286106646977817e-02
1.334531109225544146e-02
1.219992316752692776e-02
1.106851456698828597e-02
9.952902565343568417e-03
8.854904437296818795e-03
7.776337457551629750e-03
6.719018900812987784e-03
5.684766041784471667e-03
4.675396155170130283e-03
3.692726515674009044e-03
2.738574398000164639e-03
1.814757076852650938e-03
9.230918269355107512e-04
6.539592295243428009e-05
-7.565133603917873753e-04
-1.540818748393475886e-03
-2.285702966348588088e-03
-2.989348739553074341e-03
-3.649938793302876655e-03
-4.265655852893947449e-03
-4.834682643622241309e-03
-5.355201890783700680e-03
-5.825396319674472703e-03
-6.243448655590099969e-03
-6.607541623826741761e-03
-6.915863812065061421e-03
-7.167837064755782153e-03
-7.365630100726635113e-03
-7.511782584003826035e-03
-7.608834178613542443e-03
-7.659324548582003948e-03
-7.665793357935357308e-03
-7.630780270699837747e-03
-7.556824950901642329e-03
-7.446467062566962045e-03
-7.302246269722006966e-03
-7.126702236392962880e-03
-6.922374626606037258e-03
-6.691803104387313537e-03
-6.437527333763197815e-03
-6.162086978759788274e-03
-5.868021703403283711e-03
-5.557871171719883790e-03
-5.234175047735786443e-03
-4.899472995477186128e-03
-4.556304678970283378e-03
-4.207209762241122600e-03
-3.854727909316207034e-03
-3.501398784221581521e-03
-3.149762050983443556e-03
-2.802357373627992806e-03
-2.461724416181427198e-03
-2.130402842669942929e-03
-1.810932317119739012e-03
-1.505852503556883706e-03
-1.217703066007840788e-03
-9.487442807970412808e-04
-6.992270802410364364e-04
-4.685230728469376156e-04
-2.560001553265063654e-04
-6.102622439150403661e-05
1.170308232463087249e-04
2.788030908751699586e-04
4.249226817833785547e-04
5.560216992590469006e-04
6.727322465904802358e-04
7.756864270659179347e-04
8.655163439735980707e-04
9.428541006017590424e-04
1.008331800238640007e-03
1.062581546172479798e-03
1.106235441691533726e-03
1.139925590084002243e-03
1.164284094638146734e-03
1.179943058642204294e-03
1.187534585384414625e-03
1.187690778153016125e-03
1.181043740236247192e-03
1.168225574922347309e-03
1.149868385499545117e-03
1.126604275256096795e-03
1.099065347480233153e-03
1.067883705460192807e-03
1.033691452484215238e-03
9.971206918405388451e-04
9.588035268174022446e-04
9.193656803931324643e-04
8.792073019255424154e-04
8.384478823769748491e-04
7.971893503139846487e-04
7.555336343031439361e-04
7.135826629110249416e-04
6.714383647041997872e-04
6.292026682492404864e-04
5.869775021127195949e-04
5.448647948611910199e-04
5.029664750612629874e-04
4.613844712794899468e-04
4.202207120824440201e-04
3.795771260366970039e-04
3.395556417088212912e-04
3.002581876653891125e-04
2.617866924729725896e-04
2.242430846981279880e-04
1.877292929074598474e-04
1.523472456675239181e-04
1.181988715448925662e-04
8.538609910613781872e-05
5.401085691783166201e-05
2.417507354654648910e-05
-4.019322441145449303e-06
-3.047040247867207870e-05
-5.507623799947147542e-05
-7.773490043695016551e-05
-9.834446122454688259e-05
-1.168029917956895318e-04
-1.330085640814664301e-04
-1.468964488630961171e-04
-1.585402512846845852e-04
-1.680457262810440078e-04
-1.755186287869894314e-04
-1.810647137373267953e-04
-1.847897360668719320e-04
-1.867994507104371506e-04
-1.871996126028347329e-04
-1.860959766788769065e-04
-1.835942978733760345e-04
-1.798003311211442904e-04
-1.748198313569915708e-04
-1.687585535157344943e-04
-1.617222525321834184e-04
-1.538166833411505434e-04
-1.451476008774482869e-04
-1.358207600758888493e-04
-1.259419158712844040e-04
-1.156168231984473278e-04
-1.049512369921852133e-04
-9.405091218731954450e-05
-8.302160371865813097e-05
-7.196906652101309188e-05
-6.099905552919677006e-05
-5.021732567802144736e-05
-3.972963190229941238e-05
-2.964172913684296392e-05
-2.005937231646018253e-05
-1.108831637597179666e-05
-2.834316250185849604e-06
4.602843874489595968e-06
1.120224203732895626e-05
1.699871571477739712e-05
2.202827780815529464e-05
2.632694121878289699e-05
2.993071884798059805e-05
3.287562359706980135e-05
3.519766836736832238e-05
3.693286606019785268e-05
3.811722957687872174e-05
3.878677181873126583e-05
3.897750568707575346e-05
3.872544408323253445e-05
3.806659990852193152e-05
3.703698606426371174e-05
3.567261545177913295e-05
3.400950097238809096e-05
3.208365552741093560e-05
2.993109201816798620e-05
2.758782334597954854e-05
2.508986241216592500e-05
2.247322211804744847e-05
1.977391536494324566e-05
1.702795505417597371e-05
1.427135408706481354e-05
1.154012536493007093e-05
8.870281789092058421e-06
6.297836260871100440e-06
3.858801681587506996e-06
1.589190952561594031e-06
-4.750890771523038177e-07
-2.312316304872358526e-06
-3.929076651143155665e-06
-5.335316960578514275e-06
-6.540984077792262397e-06
-7.556024847398227649e-06
-8.390386114010221555e-06
-9.054014722242071731e-06
-9.556857516707782825e-06
-9.908861342020753010e-06
-1.011997304279504792e-05
-1.020013946364449601e-05
-1.015930744918291051e-05
-1.000742384402412497e-05
-9.754435492781955981e-06
-9.410289240070225241e-06
-8.984931930502762905e-06
-8.488310408693153494e-06
-7.930371519255655763e-06
-7.321062106803894891e-06
-6.670329015951690023e-06
-5.988119091312867084e-06
-5.284379177501246067e-06
-4.569056119130650355e-06
-3.852096760814898247e-06
-3.143447947167515395e-06
-2.453056522802938431e-06
-1.790869332334682206e-06
-1.166833220376569892e-06
-5.908950315424178813e-07
-7.300161044605485129e-08
3.782948623725180386e-07
7.632969199720052534e-07
1.085771012233295246e-06
1.349491616291093495e-06
1.558233209280521475e-06
1.715770268336550632e-06
1.825877270594160034e-06
1.892328693188325787e-06
1.918899013254020182e-06
1.909362707926217629e-06
1.867494254339865645e-06
1.797068129629983322e-06
1.701858810931531940e-06
1.585640775379482521e-06
1.452188500108809899e-06
1.305276462254491449e-06
1.148679138951500309e-06
9.861710073348159732e-07
8.215265445393315352e-07
6.585202277001802241e-07
5.009265339522506880e-07
3.525199404305279247e-07
2.170749242699835915e-07
9.836596260559082789e-08
1.675325723248910059e-10
-7.374588869483705625e-08
-1.195998240609252625e-07
-1.336197963909587531e-07
-1.120313285499502009e-07
-5.105994340294107750e-08
5.292785232886874906e-08
1.995385417320125701e-07
3.838606431645013694e-07
6.007430927002480247e-07
8.450348264131900570e-07
1.111584780377355646e-06
1.395241890666432518e-06
1.690855093354475482e-06
1.993273324515385927e-06
2.297345520223104629e-06
2.597920616551534039e-06
2.889847549574625308e-06
3.167975255366284273e-06
3.427152670000556531e-06
3.662228729551124303e-06
3.868052370092036997e-06
4.039472527697197062e-06
4.171338138440570050e-06
4.258498138396047822e-06
4.295801463637549344e-06
4.278097050239022380e-06
4.200233834274330840e-06
4.057060751817469921e-06
3.843426738942332331e-06
3.554180731722843813e-06
3.184171666232932650e-06
2.728248478546527124e-06
2.181260104737533496e-06
1.538055480879899531e-06
7.934835430471901343e-07
-5.760581997043411843e-08
-1.015955809898499718e-06
-2.067742430584417250e-06
-3.196135903458783212e-06
-4.384306449952405215e-06
-5.615424291495846074e-06
-6.872659649519848602e-06
-8.139182745455005261e-06
-9.398163800732623410e-06
-1.063277303678218759e-05
-1.182618067503496451e-05
-1.296155693692162116e-05
-1.402207204387276018e-05
-1.499089621731918579e-05
-1.585119967869142268e-05
-1.658615264942023103e-05
-1.717892535093647096e-05
-1.761268800467028433e-05
-1.787061083205266000e-05
-1.793586405451424125e-05
-1.779161789348570187e-05
-1.742104257039773596e-05
-1.680730830668102408e-05
-1.593358532376613497e-05
-1.478304384308329518e-05
-1.333885408606408311e-05
-1.158418627413880324e-05
-9.502210628738105635e-06
-7.076097371292599690e-06
-4.289016723232993067e-06
-1.124138905990000202e-06
2.431375122694272135e-06
6.344814722561670563e-06
1.055447758748212060e-05
1.499819566710592008e-05
1.961380091108166389e-05
2.433912526905845089e-05
2.911200069068486666e-05
3.387025912560951199e-05
3.855173252348125537e-05
4.309425283395101170e-05
4.743565200666306531e-05
5.151376199126874106e-05
5.526641473741646359e-05
5.863144219475501667e-05
6.154667631293322472e-05
6.394994904159980375e-05
6.577909233040342234e-05
6.697193812899337247e-05
6.746631838701725207e-05
6.720006505412448865e-05
6.611101007996403539e-05
6.413698541418420850e-05
6.121582300643404247e-05
5.728535480636234140e-05
5.228341276361758412e-05
4.614782882784896777e-05
3.881643494870143395e-05
3.022706307583017003e-05
2.031754515888117472e-05
9.025713147502899747e-06
-3.709529520588397529e-06
-1.785088907552827658e-05
-3.318484070813400164e-05
-4.947954199557079126e-05
-6.650315051501048610e-05
-8.402382384360126749e-05
-1.018097195585155554e-04
-1.196289952369179841e-04
-1.372498084559733501e-04
-1.544403167928445257e-04
-1.709686778246967279e-04
-1.866030491286951734e-04
-2.011115882820078439e-04
-2.142624528617888702e-04
-2.258238004452077789e-04
-2.355637886094294345e-04
-2.432505749316179967e-04
-2.486523169889379506e-04
-2.515371723585532390e-04
-2.516732986176286723e-04
-2.488288533433263231e-04
-2.427719941128134412e-04
-2.332708785032537797e-04
-2.200936640918106852e-04
-2.030085084556495102e-04
-1.817835691719344956e-04
-1.561870038178292050e-04
-1.259869699704992889e-04
-9.095162520709174948e-05
-5.084912710480194451e-05
-5.447633240779369869e-06
4.535686854497347509e-05
1.009501225804565960e-04
1.604671872946959678e-04
2.230428610467056257e-04
2.878119421954951395e-04
3.539092291000674921e-04
4.204695201194675984e-04
4.866276136126417647e-04
5.515183079386257441e-04
6.142764014564316543e-04
6.740366925250660833e-04
7.299339795035391428e-04
7.811030607508588847e-04
8.266787346260337944e-04
8.657957994880869940e-04
8.975890536959941178e-04
9.211932956087840341e-04
9.357433235854611085e-04
9.403739359850375127e-04
9.342199311665216237e-04
9.164161074889182407e-04
8.860972633112400776e-04
8.423981969924726346e-04
7.844537068916606097e-04
7.113985913678011041e-04
6.223676487798971823e-04
5.164956774869615581e-04
3.929174758480014160e-04
2.507678422220241572e-04
8.918157496803891769e-05
-9.262354452409836197e-05
-2.934796346818390128e-04
-5.102453811267116703e-04
-7.396918197176010918e-04
-9.785899863133751351e-04
-1.223710916772903718e-03
-1.471825646955047433e-03
-1.719705212718678584e-03
-1.964120649922785483e-03
-2.201842994426013184e-03
-2.429643282087339592e-03
-2.644292548765645248e-03
-2.842561830319786410e-03
-3.021222162608640151e-03
-3.177044581491077040e-03
-3.306800122825969378e-03
-3.407259822472186866e-03
-3.475194716288613518e-03
-3.507375840134066558e-03
-3.500574229867445611e-03
-3.451560921347639893e-03
-3.357106950433496988e-03
-3.213983352983900040e-03
-3.018961164857713979e-03
-2.768811421913806338e-03
-2.460305160010911076e-03
-2.090213415008155932e-03
-1.655307222764299153e-03
-1.152357619138192658e-03
-5.781356399887265310e-04
7.059535369715524771e-05
8.063814601428174068e-04
1.669161400371653317e-03
2.703886926845594160e-03
3.955509792024801061e-03
5.468981748371211718e-03
7.289254548345946993e-03
9.461279944410167647e-03
1.203000968902539353e-02
1.504039553465264314e-02
1.853738923375341727e-02
2.256594253879060097e-02
2.717100720222231577e-02
3.239753497651109981e-02
3.829047761411838446e-02
4.489478686750552477e-02
5.225541448913383763e-02
6.041731223146422358e-02
6.942543184695816605e-02
7.932472508808166567e-02
9.016014370728689387e-02
1.019766394570397888e-01
1.148191640898012095e-01
1.287326693580325143e-01
1.437621070141950341e-01
1.599524288107504466e-01
1.773485865001589445e-01
1.959955318348828857e-01
2.159382165673918719e-01
2.372215924501299422e-01
2.598906112355671705e-01
2.839904164970974976e-01
3.095680561377791573e-01
3.366716678764789528e-01
3.653494022677551967e-01
3.956494098661686998e-01
4.276198412262924853e-01
4.613088469026557781e-01
4.967645774498316569e-01
5.340351834223802108e-01
5.731688153748595305e-01
6.142136238618276511e-01
6.572177594378446619e-01
7.022293726574688755e-01
7.492966140752793658e-01
7.984676342457955878e-01
8.497905837235951720e-01
9.033136130632378746e-01
9.590848728192810091e-01
1.017152513546285553e+00
1.077564685798809707e+00
1.140369540131411563e+00
1.205615227098678410e+00
1.273349897255113605e+00
1.343621701155304882e+00
1.416478789353807777e+00
1.491969312405184267e+00
1.570141420863991666e+00
1.651043265284789285e+00
1.734722996222135993e+00
1.821228764230627739e+00
1.910607666187191356e+00
2.002836607496787824e+00
2.097779487192482861e+00
2.195289974112896392e+00
2.295221737096647008e+00
2.397428444982355966e+00
2.501763766608641859e+00
2.608081370814171240e+00
2.716234926437471664e+00
2.826078102317207019e+00
2.937464567291999451e+00
3.050247990200466663e+00
3.164282039881228137e+00
3.279420385172906016e+00
3.395516694914117561e+00
3.512424637943481809e+00
3.629997883099673306e+00
3.748090099221204952e+00
3.866554955146749961e+00
3.985246119714927815e+00
4.104017261764355773e+00
4.222722050133657312e+00
4.341214153661450581e+00
4.459347241186353727e+00
4.576974981547039079e+00
4.693951043582023530e+00
4.810129096129978521e+00
4.925362808029521311e+00
5.039505848119274489e+00
5.152411885237855316e+00
5.263934588223885491e+00
5.373917553879327791e+00
5.482154201118428993e+00
5.588422353488234684e+00
5.692499829628530073e+00
5.794164448179051519e+00
5.893194027779538935e+00
5.989366387069728681e+00
6.082459344689360670e+00
6.172250719278172149e+00
6.258518329475936781e+00
6.341039993922319873e+00
6.419593531257095087e+00
6.493956760120004112e+00
6.563907499150779756e+00
6.629223566989164595e+00
6.689682782274894102e+00
6.745062963647708187e+00
6.795141929747363641e+00
6.839697499213555076e+00
6.878507490686045500e+00
6.911349722804569495e+00
6.938002014208868751e+00
6.958242183538677850e+00
6.971848049433740258e+00
6.978597430533787005e+00
6.978268145478560669e+00
6.970638012907793168e+00
6.955484851461229745e+00
6.932586479778603206e+00
6.901720716499657904e+00
6.862676148214038818e+00
6.815452661625675645e+00
6.760243022212912400e+00
6.697247069523490914e+00
6.626664643105120156e+00
6.548695582505600576e+00
6.463539727272643809e+00
6.371396916953990797e+00
6.272466991097381594e+00
6.166949789250555369e+00
6.055045150961256617e+00
5.936952915777224504e+00
5.812872923246143131e+00
5.683005012915863574e+00
5.547549024334068157e+00
5.406704797048503153e+00
5.260672170606907727e+00
5.109650984557020159e+00
4.953841078446584056e+00
4.793442291823337698e+00
4.628654464234951860e+00
4.459677435229306042e+00
4.286711044354074573e+00
4.109955131156994845e+00
3.929609535185810909e+00
3.745874095988258379e+00
3.558948653112081306e+00
3.369033046105020190e+00
3.176327114514732042e+00
2.981030697889122116e+00
2.783343720173097946e+00
2.583508979114235160e+00
2.381881773993264506e+00
2.178835633896743840e+00
1.974744087911228796e+00
1.769980665123274344e+00
1.564918894619437228e+00
1.359932305486186488e+00
1.155394426810252506e+00
9.516787876781060973e-01
7.491589171763012311e-01
5.482083443913939869e-01
3.492005984099411653e-01
1.525092083184988456e-01
-4.149229679637751744e-02
-2.324303878482119334e-01
-4.199315357502858559e-01
-6.036222114161240437e-01
-7.831288857591718333e-01
-9.580780296928715911e-01
-1.128096114130669347e+00
-1.292809609986007136e+00
-1.451844988172330098e+00
-1.604828719603146325e+00
-1.751387275191767179e+00
-1.891147125851704303e+00
-2.023734742496401839e+00
-2.148776596039303488e+00
-2.265899157393853169e+00
-2.374728897473493916e+00
-2.474892287191670981e+00
-2.566054789560738847e+00
-2.648220384290349561e+00
-2.721566987741082855e+00
-2.786273942955901362e+00
-2.842520592977766380e+00
-2.890486280849640099e+00
-2.930350349614482930e+00
-2.962292142315258392e+00
-2.986491001994935335e+00
-3.003126271696454630e+00
-3.012377294462792232e+00
-3.014423413336905888e+00
-3.009443971361761339e+00
-2.997618311580317663e+00
-2.979125777035536160e+00
-2.954145710770381683e+00
-2.922857455827813311e+00
-2.885440355250775024e+00
-2.842073752082261429e+00
-2.792936989365220057e+00
-2.738209410142611766e+00
-2.678070357457398298e+00
-2.612699174352540066e+00
-2.542275203871002365e+00
-2.466977789055742942e+00
-2.386986272949690235e+00
-2.302479998595873933e+00
-2.213638309037223806e+00
-2.120640547316699376e+00
-2.023666056477263275e+00
-1.922895341817145276e+00
-1.818567439387932083e+00
-1.711006192341996357e+00
-1.600542088952267239e+00
-1.487505617491817755e+00
-1.372227266233578158e+00
-1.255037523450526438e+00
-1.136266877415639476e+00
-1.016245816401895041e+00
-8.953048286822707924e-01
-7.737744025297442763e-01
-6.519850262172400823e-01
-5.302671880178415620e-01
-4.089513762044735268e-01
-2.883680790501128577e-01
-1.688477848277376570e-01
-5.072098181032478476e-02
6.568184172914723340e-02
1.800301975177013569e-01
2.919935972824084791e-01
4.012415527501935752e-01
5.074435756481279203e-01
6.102691777032339671e-01
7.093878706425345015e-01
8.044691661930523097e-01
8.951825760818092892e-01
9.811976120358285591e-01
1.062183785782132128e+00
1.137810609047773758e+00
1.207747593559711063e+00
1.271664251045000249e+00
1.329304079090850799e+00
1.380737764066310547e+00
1.426126408339692286e+00
1.465631117341590794e+00
1.499412996502604623e+00
1.527633151253339650e+00
1.550452687024369336e+00
1.568032709246302892e+00
1.580534323349735537e+00
1.588118634765265158e+00
1.590946748923488085e+00
1.589179771255000206e+00
1.582978807190398518e+00
1.572504962160273134e+00
1.557919341595229712e+00
1.539383050925861696e+00
1.517057195582765194e+00
1.491102880996536983e+00
1.461681212597772506e+00
1.428953295817068980e+00
1.393080236085022294e+00
1.354223138832212125e+00
1.312543109489268112e+00
1.268201253486770153e+00
1.221358676255315467e+00
1.172176483225500165e+00
1.120815779827920133e+00
1.067437671493172147e+00
1.012203263651852980e+00
9.552736617345338743e-01
8.968103242859222224e-01
8.369805671344233700e-01
7.759565277309193876e-01
7.139104870467152253e-01
6.510147260531166102e-01
5.874415257214293806e-01
5.233631670229584865e-01
4.589519309289823434e-01
3.943800984108614127e-01
3.298199504398741100e-01
2.654437679873257183e-01
2.014238320245216873e-01
1.379324235227681050e-01
7.514182345336944957e-02
1.322431278763230161e-02
-4.764782750313870108e-02
-1.073023164476626101e-01
-1.655668730745828432e-01
-2.222692164126197356e-01
-2.772370654904678933e-01
-3.302981393368214502e-01
-3.812801569803752066e-01
-4.300108374498234354e-01
-4.763178997738607978e-01
-5.200290629811998855e-01
-5.609720461004972236e-01
-5.989745681604667915e-01
-6.338643481898033061e-01
-6.654691052172008181e-01
-6.936165582713541555e-01
-7.181347329344852648e-01
-7.389339699019308316e-01
-7.561176062567048772e-01
-7.698166045346974684e-01
-7.801619272718210985e-01
-7.872845370039810442e-01
-7.913153962670825825e-01
-7.923854675970297690e-01
-7.906257135297278804e-01
-7.861670966010815276e-01
-7.791405793469922125e-01
-7.696771243033707632e-01
-7.579076940061196810e-01
-7.439632509911432434e-01
-7.279747577943470604e-01
-7.100731769516355207e-01
-6.903894709989135681e-01
-6.690546024720857021e-01
-6.461995339070474298e-01
-6.219552278397226797e-01
-5.964526468060067366e-01
-5.698227533418049884e-01
-5.421965099830214907e-01
-5.137048792655618534e-01
-4.844788237253304652e-01
-4.546493058982319924e-01
-4.243472883201718227e-01
-3.937037335270412441e-01
-3.628496040547714574e-01
-3.319158624392545276e-01
-3.010334712163950099e-01
-2.703263409887522450e-01
-2.398646051605772545e-01
-2.096936292039022764e-01
-1.798586467846851611e-01
-1.504048915688711019e-01
-1.213775972224429844e-01
-9.282199741134596060e-02
-6.478332580153776943e-02
-3.730681605897595565e-02
-1.043770184961843872e-02
1.577878316057712560e-02
4.129740530565299134e-02
6.607293091966200127e-02
9.006012633662498212e-02
1.132137578905950959e-01
1.354885919156146312e-01
1.568393947457257798e-01
1.772209327149708857e-01
1.965879721573922101e-01
2.148952794070320138e-01
2.320976207979397188e-01
2.481497626641427645e-01
2.630064713396911280e-01
2.766225131586269037e-01
2.889526544549925746e-01
2.999516615628303740e-01
3.095743008161825349e-01
3.177753385490912907e-01
3.245095410956014281e-01
3.297316747897496292e-01
3.333977221660481827e-01
3.355114590073011160e-01
3.361390449021302573e-01
3.353508388353453329e-01
3.332171997917557915e-01
3.298084867561710820e-01
3.251950587134009862e-01
3.194472746482520664e-01
3.126354935455391559e-01
3.048300743900694831e-01
2.961013761666523858e-01
2.865197578600975903e-01
2.761555784552146564e-01
2.650791969368130885e-01
2.533609722897023908e-01
2.410712634986867664e-01
2.282804295485863777e-01
2.150588294242055387e-01
2.014768221103538093e-01
1.876047665918407770e-01
1.735130218534760849e-01
1.592719468800690708e-01
1.449519006564294887e-01
1.306232421673604593e-01
1.163563303976842128e-01
1.022215243322039113e-01
8.828918295572921182e-02
7.462966525306960475e-02
6.131333020903463604e-02
4.841053680843386553e-02
3.599164403320481015e-02
2.411399159919107998e-02
1.278378324158877498e-02
1.994669735053368562e-03
-8.259698145754430440e-03
-1.798566962617394183e-02
-2.718959393154439866e-02
-3.587782028720507693e-02
-4.405669791849529948e-02
-5.173257605075749083e-02
-5.891180390932436450e-02
-6.560073071953853585e-02
-7.180570570673938668e-02
-7.753307809626613922e-02
-8.278919711345811283e-02
-8.758041198365452973e-02
-9.191307193219475091e-02
-9.579352618441794309e-02
-9.922812396566486892e-02
-1.022232145012718085e-01
-1.047851470165795940e-01
-1.069202707369275723e-01
-1.086349348876549659e-01
-1.099354886941010800e-01
-1.108282813816051648e-01
-1.113196621755065258e-01
-1.114159803011444128e-01
-1.111235849838579925e-01
-1.104488254489866816e-01
-1.093980509218697855e-01
-1.079776106278465403e-01
-1.061944197344620588e-01
-1.040634098398270924e-01
-1.016054604281926704e-01
-9.884159163037614659e-02
-9.579282357719839935e-02
-9.248017639947689328e-02
-8.892467022803021703e-02
-8.514732519367688990e-02
-8.116916142723545891e-02
-7.701119905952454048e-02
-7.269445822136264002e-02
-6.823995904356640330e-02
-6.366872165695823538e-02
-5.900176619235479591e-02
-5.426011278057465970e-02
-4.946478155243634600e-02
-4.463679263875843656e-02
-3.979716617035949922e-02
-3.496692227805810876e-02
-3.016708109267072016e-02
-2.541866274502006806e-02
-2.074268736592262824e-02
-1.616017508619695120e-02
-1.169214603666162040e-02
-7.359620348135190691e-03
-3.183618151436218638e-03
8.148404226167721420e-04
4.614735243205162624e-03
8.195046179511937534e-03
1.153475310071541519e-02
1.461289091893702707e-02
1.741746639937506377e-02
1.995531791778347094e-02
2.223565769801690364e-02
2.426769796393002387e-02
2.606065093937748323e-02
2.762372884821456126e-02
2.896614391429456342e-02
3.009710836147286295e-02
3.102583441360413224e-02
3.176153429454301597e-02
3.231342022814416570e-02
3.269070443826224692e-02
3.290259914875191122e-02
3.295831658346779630e-02
3.286706896626452601e-02
3.263806852099680744e-02
3.228052747151929219e-02
3.180365804168662491e-02
3.121667245535348148e-02
3.052878293637451002e-02
2.974920170860436211e-02
2.888714099589730078e-02
2.795181302210874782e-02
2.695243001109296974e-02
2.589820418670465280e-02
2.479834777279843819e-02
2.366207299322899138e-02
2.249859207185094662e-02
2.131711723251897284e-02
2.012686069908721509e-02
1.893633051459614469e-02
1.774930077131868164e-02
1.656759482195374264e-02
1.539302994120537657e-02
1.422742340377763925e-02
1.307259248437457437e-02
1.193035445770024294e-02
1.080252659845819772e-02
9.690926181353471183e-03
8.597370481089624747e-03
7.523676772370707297e-03
6.471662329900766848e-03
5.443144428383855753e-03
4.439940342524025495e-03
3.463867347025327125e-03
2.516742716591809960e-03
1.600383725927133219e-03
7.166076497361422402e-04
-1.327682372775185562e-04
-9.459266604097927526e-04
-1.721050344956630762e-03
-2.456322016213990586e-03
-3.149924399477813369e-03
-3.800040220044049143e-03
-4.404852203208905331e-03
-4.962543074267801793e-03
-5.471295558516958528e-03
-5.929292381252330990e-03
-6.334716267769865093e-03
-6.685749943365507618e-03
-6.980637021093483337e-03
-7.219535436221577972e-03
-7.404855743426357918e-03
-7.539137606733867583e-03
-7.624920690170390765e-03
-7.664744657762127128e-03
-7.661149173535277204e-03
-7.616673901516034587e-03
-7.533858505730599807e-03
-7.415242650205168193e-03
-7.263365998965866550e-03
-7.080768216039026383e-03
-6.869988965450783171e-03
-6.633567911227335710e-03
-6.374044717394885401e-03
-6.093959047979624968e-03
-5.795850567007754944e-03
-5.482258938505474126e-03
-5.155723826498832991e-03
-4.818784895014314833e-03
-4.473981808077980536e-03
-4.123854229716023695e-03
-3.770941823954644407e-03
-3.417784254820042337e-03
-3.066921186338410644e-03
-2.720892282535948559e-03
-2.382237207438856613e-03
-2.053495625073191791e-03
-1.737207199465434565e-03
-1.435911594641641918e-03
-1.152148424528189703e-03
-8.878532241711077546e-04
-6.428534599101198409e-04
-4.165170284569876718e-04
-2.082118265234728484e-04
-1.730575082125742579e-05
1.568333019377323519e-04
3.148374350418218430e-04
4.573387517792489921e-04
5.849693554382529026e-04
6.983613493070726236e-04
7.981468366739461742e-04
8.849579208271130372e-04
9.594267050548407763e-04
1.022185292645304798e-03
1.073865786886777328e-03
1.115100291067497957e-03
1.146520908475705735e-03
1.168759742399639060e-03
1.182448896127536331e-03
1.188220472947636164e-03
1.186706576148175438e-03
1.178539309017394721e-03
1.164350774843533063e-03
1.144773076914829511e-03
1.120438318519522466e-03
1.091978602945850975e-03
1.060026033482052788e-03
1.025212713416368254e-03
9.881707460370186408e-04
9.495322346322750909e-04
9.099046223552021036e-04
8.695945297039221191e-04
8.287075614068833626e-04
7.873456460306577391e-04
7.456107121418175873e-04
7.036046883069351377e-04
6.614295030925825122e-04
6.191870850653136181e-04
5.769793627917370066e-04
5.349082648384070188e-04
4.930757197718952344e-04
4.515836561587742632e-04
4.105340025656161731e-04
3.700286875589933570e-04
3.301696397054777743e-04
2.910587875716247959e-04
2.527980597240404794e-04
2.154893847292800872e-04
1.792346911539157144e-04
1.441359075645193201e-04
1.102949625276635143e-04
7.781378460992014780e-05
4.679430237786152551e-05
1.733844439804744337e-05
-1.045186076292456230e-05
-3.647468453849507844e-05
-6.062809836209227110e-05
-8.281017366714381843e-05
-1.029189818870774155e-04
-1.208525944553211912e-04
-1.365097010471620707e-04
-1.498559899771308786e-04
-1.609832691455791013e-04
-1.699972934873251735e-04
-1.770038179371815127e-04
-1.821085974299602379e-04
-1.854173869004736310e-04
-1.870359412835340281e-04
-1.870700155139537111e-04
-1.856253645265440401e-04
-1.828077432561183813e-04
-1.787229066374888809e-04
-1.734766096054677395e-04
-1.671746070948672389e-04
-1.599226540404995796e-04
-1.518265053771771520e-04
-1.429919160397121294e-04
-1.335246409629167936e-04
-1.235304350815990626e-04
-1.131150533305798106e-04
-1.023842506446670774e-04
-9.144378195867319912e-05
-8.039940220741040333e-05
-6.935686632569091768e-05
-5.842192924832709179e-05
-4.770034591013113973e-05
-3.729787124591093199e-05
-2.732026019048780350e-05
-1.787326767866933677e-05
-9.062648645267900024e-06
-9.941580250957429254e-07
6.241970860561874519e-06
1.264775312521932092e-05
1.825914891756485971e-05
2.311217113892074482e-05
2.724283269060308245e-05
3.068714647393448909e-05
3.348112539023528406e-05
3.566078234082574943e-05
3.726213022702619436e-05
3.832118195015696190e-05
3.887395041153836800e-05
3.895644851249064049e-05
3.860468915433406823e-05
3.785468523838906880e-05
3.674244966597600557e-05
3.530399533841514027e-05
3.357533515702680241e-05
3.159248202313133503e-05
2.939144883804903713e-05
2.700824850309915739e-05
2.447889391960406835e-05
2.183939798888311694e-05
1.912577361225660896e-05
1.637403369104487388e-05
1.362019112656819886e-05
1.090025882014691677e-05
8.250249673101336793e-06
5.706176586751786716e-06
3.304052462417567318e-06
1.079890201421095605e-06
-9.311297055764942659e-07
-2.715188625782110828e-06
-4.281138883018342595e-06
-5.638927321899010091e-06
-6.798500787037933311e-06
-7.769806123048938177e-06
-8.562790174546154698e-06
-9.187399786142725242e-06
-9.653581802452844190e-06
-9.971283068090340009e-06
-1.015045042766903269e-05
-1.020103072580275070e-05
-1.013297080710530895e-05
-9.956217516190534212e-06
-9.680717697672110953e-06
-9.316418196164098030e-06
-8.873265856280223958e-06
-8.361207522634308732e-06
-7.790190039840180815e-06
-7.170160252511653426e-06
-6.511065005262558418e-06
-5.822851142706710702e-06
-5.115465509457628728e-06
-4.398854950129746590e-06
-3.682966309336590785e-06
-2.977746431691977918e-06
-2.293142161809733067e-06
-1.639100344303674530e-06
-1.025567823787632256e-06
-4.624914448754243315e-07
4.018335753360244192e-08
4.754273848148825969e-07
8.452638304633726128e-07
1.153467171614055979e-06
1.403811885401905305e-06
1.600072448961895637e-06
1.746023339428999056e-06
1.845439033938189335e-06
1.902094009624461850e-06
1.919762743622743153e-06
1.902219713068036877e-06
1.853239395095322089e-06
1.776596266839569390e-06
1.676064805435757424e-06
1.555419488018857848e-06
1.418434791723845073e-06
1.268885193685698802e-06
1.110545171039322506e-06
9.471892009198224156e-07
7.825917604621170359e-07
6.205273268011710363e-07
4.647703770719660267e-07
3.190953884094708054e-07
1.872768379486682529e-07
7.308920282452557959e-08
-1.969303982801435659e-08
-8.729541287389583035e-08
-1.259434391781882656e-07
-1.318626416059176758e-07
-1.012785430221130389e-07
-3.041666629179041588e-08
8.400235748600937139e-08
2.400195935791120392e-07
4.325270168194843100e-07
6.563735632808781384e-07
9.064081690372840644e-07
1.177479770162625501e-06
1.464437302730816966e-06
1.762129702815801990e-06
2.065405906491493186e-06
2.369114849831814178e-06
2.668105468910835974e-06
2.957226699802189972e-06
3.231327478579953957e-06
3.485256741318040118e-06
3.713863424090367421e-06
3.911996462970870078e-06
4.074504794033470443e-06
4.196237353352089600e-06
4.272043077000675312e-06
4.296770901053092336e-06
4.265269761583296060e-06
4.172388594665192745e-06
4.012976336372745400e-06
3.781881922779862829e-06
3.473954289960457220e-06
3.084042373988457703e-06
2.606995110937779009e-06
2.037661436882093617e-06
1.370890287895816008e-06
6.015306000526389880e-07
-2.754688720885805901e-07
-1.257493047592501354e-06
-2.328963815166160957e-06
-3.473051396240132274e-06
-4.672926012245103907e-06
-5.911757884612369238e-06
-7.172717234771419587e-06
-8.438974284153503020e-06
-9.693699254189275529e-06
-1.092006236630939988e-05
-1.210123384194461592e-05
-1.322038390252545682e-05
-1.426068276948272002e-05
-1.520530066424737576e-05
-1.603740780824931686e-05
-1.674017442291966603e-05
-1.729677072968901911e-05
-1.769036694998812781e-05
-1.790413330524749988e-05
-1.792124001689803273e-05
-1.772485730637025445e-05
-1.729815539509461518e-05
-1.662430450450216819e-05
-1.568647485602344833e-05
-1.446783667108909551e-05
-1.295156017112988176e-05
-1.112081557757629789e-05
-8.958773111859173543e-06
-6.448602995409074071e-06
-3.573475449655429809e-06
-3.165606960313539905e-07
3.329088021704757758e-06
7.318379142461164582e-06
1.158915459840153828e-05
1.607924633917484433e-05
2.072648631442973010e-05
2.546870647381502004e-05
3.024373876697946742e-05
3.498941514357373304e-05
3.964356755324265010e-05
4.414402794563683535e-05
4.842862827040502513e-05
5.243520047719626070e-05
5.610157651565891927e-05
5.936558833544208953e-05
6.216506788619448071e-05
6.443784711756558132e-05
6.612175797920190508e-05
6.715463242075392304e-05
6.747430239186996497e-05
6.701859984219880786e-05
6.572535672138928291e-05
6.353240497909007226e-05
6.037757656495030525e-05
5.619870342861593997e-05
5.093361751974010375e-05
4.452015078796962204e-05
3.689613518295309564e-05
2.799940265433959971e-05
1.776778515177757241e-05
6.139114624916061809e-06
-6.942016604182326671e-06
-2.138708550562503155e-05
-3.696978080393495370e-05
-5.345826007628125292e-05
-7.062068089982871915e-05
-8.822520085174116657e-05
-1.060399775091837104e-04
-1.238331684493205510e-04
-1.413729312493157398e-04
-1.584274234863410394e-04
-1.747648027375458104e-04
-1.901532265801019644e-04
-2.043608525911737154e-04
-2.171558383479255485e-04
-2.283063414275221384e-04
-2.375805194071275907e-04
-2.447465298639051436e-04
-2.495725303750213420e-04
-2.518266785176392886e-04
-2.512771318689219777e-04
-2.476920480060346803e-04
-2.408395845061419628e-04
-2.304878989464090148e-04
-2.164051489039997794e-04
-1.983594919560774947e-04
-1.761190856798081636e-04
-1.494520876523424747e-04
-1.181266554508677625e-04
-8.191094665253829347e-05
-4.057311883451874233e-05
6.118316561769440258e-06
5.813619352673884440e-05
1.147379590181562658e-04
1.750584113950265418e-04
2.382323490163907990e-04
3.033945702412007921e-04
3.696798734284924910e-04
4.362230569372730531e-04
5.021589191265543248e-04
5.666222583553405089e-04
6.287478729826436689e-04
6.876705613674717480e-04
7.425251218688578431e-04
7.924463528457567716e-04
8.365690526572079188e-04
8.740280196622160838e-04
9.039580522197930047e-04
9.254939486889455407e-04
9.377705074286838034e-04
9.399225267980136763e-04
9.310848051559393081e-04
9.103921408614770987e-04
8.769793322736344496e-04
8.299811777514178946e-04
7.685324756538380875e-04
6.917680243399041643e-04
5.988226221686205990e-04
4.888310674990025990e-04
3.609281586899938145e-04
2.142486941007146206e-04
4.792747209012362952e-05
-1.386324973513800745e-04
-3.435524997938941573e-04
-5.636166290311425686e-04
-7.955959209219700453e-04
-1.036261411325248944e-03
-1.282384136099860676e-03
-1.530735131104769050e-03
-1.778085432198647526e-03
-2.021206075240456444e-03
-2.256868096089072878e-03
-2.481842530603359156e-03
-2.692900414642202759e-03
-2.886812784064450837e-03
-3.060350674728993040e-03
-3.210285122494750242e-03
-3.333387163220460740e-03
-3.426427832765078802e-03
-3.486178166987449409e-03
-3.509409201746463078e-03
-3.492891972900978234e-03
-3.433397516309874987e-03
-3.327696867832020001e-03
-3.172561063326194072e-03
-2.964761138651420425e-03
-2.701068129666508479e-03
-2.378253072230312321e-03
-1.993087002201710325e-03
-1.542340955439581301e-03
-1.022785967802791914e-03
-4.311930751502062245e-04
2.359410262262843919e-04
9.977697880215131900e-04
1.897249637983277259e-03
2.979332328571896588e-03
4.288969612249691164e-03
5.871113241477312825e-03
7.770714968716127893e-03
1.003272654642748014e-02
1.270209972707399965e-02
1.582378626311423814e-02
1.944273790701096793e-02
2.360390641122529776e-02
2.835224352821856530e-02
3.373270101045203195e-02
3.979023061038665376e-02
4.656978408048408069e-02
5.411631317320542145e-02
6.247476964101583707e-02
7.169010523636927534e-02
8.180727171173041157e-02
9.287122081956092345e-02
1.049269043123211703e-01
1.180192739424731768e-01
1.321932814624782460e-01
1.474938786247972922e-01
1.639660171818993484e-01
1.816546488862305908e-01
2.006047254902601218e-01
2.208611987464488002e-01
2.424690204072581512e-01
2.654731422251490058e-01
2.899189706392402699e-01
3.158540363033380260e-01
3.433264896984639658e-01
3.723844813791505337e-01
4.030761618999697538e-01
4.354496818154796611e-01
4.695531916802394568e-01
5.054348420488078419e-01
5.431427834757432960e-01
5.827251665156053528e-01
6.242301417229714211e-01
6.677058596523636202e-01
7.132004708583584707e-01
7.607621258955152843e-01
8.104389753183933731e-01
8.622791696815509388e-01
9.163308595395455169e-01
9.726421954469389730e-01
1.031261327958314045e+00
1.092236407628178974e+00
1.155615585011117830e+00
1.221447010661688592e+00
1.289778835134451240e+00
1.360659208983965307e+00
1.434136282764788106e+00
1.510258207031478950e+00
1.589073132338596928e+00
1.670629209240735324e+00
1.754974588292385063e+00
1.842157420048138317e+00
1.932220276875124432e+00
2.025105878069632048e+00
2.120670725156051706e+00
2.218768486973001330e+00
2.319252832359102623e+00
2.421977430153018584e+00
2.526795949193279878e+00
2.633562058318551280e+00
2.742129426367451384e+00
2.852351722178600113e+00
2.964082614590616949e+00
3.077175772442122703e+00
3.191484864571735081e+00
3.306863559818124632e+00
3.423165527019811805e+00
3.540244435015465818e+00
3.657953952643706153e+00
3.776147748743151844e+00
3.894679492152423261e+00
4.013402851710138108e+00
4.132171496254921195e+00
4.250839094625436410e+00
4.369259315660205978e+00
4.487285828197896898e+00
4.604772301077133534e+00
4.721572403136530482e+00
4.837539803214712109e+00
4.952528170150294784e+00
5.066391172781900210e+00
5.178982479948194495e+00
5.290155704589341035e+00
5.399744739154771267e+00
5.507534784995104182e+00
5.613303660750077029e+00
5.716829185059428831e+00
5.817889176562895948e+00
5.916261453900220069e+00
6.011723835711134889e+00
6.104054140635420289e+00
6.193030187312735357e+00
6.278429794382854645e+00
6.360030780485519841e+00
6.437610964260467306e+00
6.510948164347435174e+00
6.579820199386162471e+00
6.644004888016386445e+00
6.703280048877870101e+00
6.757423500610298284e+00
6.806213061853439328e+00
6.849426551247027817e+00
6.886841787430803663e+00
6.918236589044504115e+00
6.943388774727867307e+00
6.962076163120632266e+00
6.974076572862538015e+00
6.979167822593316473e+00
6.977127730952709328e+00
6.967734116580454717e+00
6.950764798116290777e+00
6.925997594199956531e+00
6.893210323471188339e+00
6.852213171102094158e+00
6.803078237990558108e+00
6.746004530427661017e+00
6.681191887961126064e+00
6.608840150138695080e+00
6.529149156508104568e+00
6.442318746617099912e+00
6.348548760013419390e+00
6.248039036244802169e+00
6.140989414858943896e+00
6.027599735403676995e+00
5.908069837426693560e+00
5.782599560475741640e+00
5.651388744098555073e+00
5.514637227842877465e+00
5.372544851256448872e+00
5.225311453887010238e+00
5.073136875282301617e+00
4.916220954989992009e+00
4.754763532557962691e+00
4.588964447533884439e+00
4.419023539465499972e+00
4.245140647900548458e+00
4.067515612386769952e+00
3.886348272471905396e+00
3.701838467703696622e+00
3.514186037629798864e+00
3.323590821798120043e+00
3.130252659756316724e+00
2.934371391052130740e+00
2.736148442919819512e+00
2.535854959896358007e+00
2.333857569858666992e+00
2.130529801893300323e+00
1.926245185086728817e+00
1.721377248525681747e+00
1.516299521296629704e+00
1.311385532486128103e+00
1.107008811180732133e+00
9.035428864669980964e-01
7.013612874314835155e-01
5.008375431607429151e-01
3.023451827412482196e-01
1.062577352597266489e-01
-8.705127019735230121e-02
-2.772083045434320381e-01
-4.638398386919559413e-01
-6.465723435563698329e-01
-8.250322900501153578e-01
-9.988461490866379355e-01
-1.167640391579452874e+00
-1.331041488441857545e+00
-1.488675910587370366e+00
-1.640170128929435256e+00
-1.785150614381495915e+00
-1.923243837856996263e+00
-2.054076270269380888e+00
-2.177274382532092378e+00
-2.292464645558623726e+00
-2.399273530262319376e+00
-2.497327507556672987e+00
-2.586341873481956988e+00
-2.666400424270307212e+00
-2.737682502799085427e+00
-2.800367452111252042e+00
-2.854634615249769247e+00
-2.900663335257599229e+00
-2.938632955177717943e+00
-2.968722818053053381e+00
-2.991112266926585939e+00
-3.005980644841278249e+00
-3.013507294840090722e+00
-3.013871559965984659e+00
-3.007252783261924023e+00
-2.993830307770867893e+00
-2.973783476535769132e+00
-2.947291632599607247e+00
-2.914534119005334656e+00
-2.875690278795914434e+00
-2.830939455014309214e+00
-2.780460990703479851e+00
-2.724434228906386313e+00
-2.663038512665992119e+00
-2.596453185025228372e+00
-2.524857589027114546e+00
-2.448431067714584852e+00
-2.367352964130601478e+00
-2.281802621318123947e+00
-2.191959382320116223e+00
-2.098002590179538274e+00
-2.000111587939353619e+00
-1.898471044919071815e+00
-1.793346686070769858e+00
-1.685067335448578119e+00
-1.573963481325476366e+00
-1.460365611974440370e+00
-1.344604215668447234e+00
-1.227009780680475615e+00
-1.107912795283502394e+00
-9.876437477504531604e-01
-8.665331263544090445e-01
-7.449114193682970786e-01
-6.231091150650931443e-01
-5.014567017177755659e-01
-3.802846675993215575e-01
-2.599235009827095544e-01
-1.407036901409159102e-01
-2.295572334691868555e-02
9.298991112635443534e-02
2.068027250058255828e-01
3.181522300185674612e-01
4.267079378916029953e-01
5.321393603519546378e-01
6.341160091266445642e-01
7.323073959426960045e-01
8.263830325271299682e-01
9.160124306070083211e-01
1.000865101909274912e+00
1.080610558160992385e+00
1.154918311089182970e+00
1.223457872420869341e+00
1.285899445860258838e+00
1.342053341111216547e+00
1.392039285437969731e+00
1.436018384271130932e+00
1.474151743041260065e+00
1.506600467178973446e+00
1.533525662114866739e+00
1.555088433279537385e+00
1.571449886103581273e+00
1.582771126017594732e+00
1.589213258452174760e+00
1.590937388837916355e+00
1.588104622605416294e+00
1.580876065185271351e+00
1.569412822008077635e+00
1.553875998504433031e+00
1.534426700104933206e+00
1.511226032240173600e+00
1.484435100340752101e+00
1.454215009837251271e+00
1.420726866160292312e+00
1.384131774740460896e+00
1.344590841008352244e+00
1.302265170394563354e+00
1.257315868329690112e+00
1.209904040244330181e+00
1.160190791569079227e+00
1.108337227734532693e+00
1.054504454171264483e+00
9.988535763099175568e-01
9.415456995810652652e-01
8.827429249660099231e-01
8.226144443217321411e-01
7.613325261542608358e-01
6.990694514347957078e-01
6.359975011347495100e-01
5.722889562253191675e-01
5.081160976779199867e-01
4.436512064637470054e-01
3.790665635542167511e-01
3.145344499205234845e-01
2.502271465340286105e-01
1.863169343660930899e-01
1.229760943879118912e-01
6.037690757089993199e-02
-1.308345113745190171e-03
-6.190738269461161514e-02
-1.212479242004982916e-01
-1.791576886600464991e-01
-2.354643951019028125e-01
-2.899957625548585938e-01
-3.425795100475145238e-01
-3.930433566086556918e-01
-4.412150212668896065e-01
-4.869222230509933080e-01
-5.299926809895829649e-01
-5.702541141114270129e-01
-6.075342414451815332e-01
-6.416607820195127099e-01
-6.724614548631737687e-01
-6.997639790048059139e-01
-7.233998033099191538e-01
-7.433300023417631630e-01
-7.596756496296392935e-01
-7.725677077094340595e-01
-7.821371391170449661e-01
-7.885149063883939435e-01
-7.918319720593748334e-01
-7.922192986658979086e-01
-7.898078487438674467e-01
-7.847285848291838395e-01
-7.771124694577615788e-01
-7.670904651654912865e-01
-7.547935344882842346e-01
-7.403526399620584675e-01
-7.238987441226939490e-01
-7.055628095061241556e-01
-6.854757986482219456e-01
-6.637686740849270128e-01
-6.405723983521066645e-01
-6.160179339857060343e-01
-5.902362435215869896e-01
-5.633582894956757903e-01
-5.355150344439015830e-01
-5.068374409021212390e-01
-4.774564714062891069e-01
-4.475030884922591712e-01
-4.171082546959884452e-01
-3.864029325533286929e-01
-3.555180846002110595e-01
-3.245846733725680777e-01
-2.937336611137570941e-01
-2.630805181396566050e-01
-2.326836254620896216e-01
-2.025882167470661466e-01
-1.728395256604918218e-01
-1.434827858683760671e-01
-1.145632310366257595e-01
-8.612609483122425635e-02
-5.821661091815314576e-02
-3.088001296332194834e-02
-4.161534632735714237e-03
2.189359040769402187e-02
4.724012849196448233e-02
7.183284595416188079e-02
9.562650912830611416e-02
1.185758843484199382e-01
1.406357379485852210e-01
1.617608362628062124e-01
1.819059456251615470e-01
2.010258323696587912e-01
2.190752628303733185e-01
2.360090033413161925e-01
2.517818202365587066e-01
2.663484798501283279e-01
2.796637485160559655e-01
2.916823925684070562e-01
3.023591783412031830e-01
3.116488721685048424e-01
3.195062403843385579e-01
3.258860493227598853e-01
3.307430653178001223e-01
3.340369936024213948e-01
3.357920276444638086e-01
3.360775915936231040e-01
3.349640444347093959e-01
3.325217451525340207e-01
3.288210527319024301e-01
3.239323261576305124e-01
3.179259244145194452e-01
3.108722064873825630e-01
3.028415313610368087e-01
2.939042580202778643e-01
2.841307454499308327e-01
2.735913526347882319e-01
2.623564385596780513e-01
2.504963622093900333e-01
2.380814825687546377e-01
2.251821586225596916e-01
2.118687493556254964e-01
1.982116137527735189e-01
1.842811107987896713e-01
1.701475994785078272e-01
1.558814387767129273e-01
1.415529876782392060e-01
1.272326051678713821e-01
1.129906502304316024e-01
9.889748185074152820e-02
8.502345901358644709e-02
7.143894070379980255e-02
5.821428590616764542e-02
4.541985360552240614e-02
3.312581897507247547e-02
2.137852991959989651e-02
1.017717965305716364e-02
-4.845810498847450852e-04
-1.061310141455650696e-02
-2.021473066631489929e-02
-2.929581803048262809e-02
-3.786271273241470503e-02
-4.592176399743552739e-02
-5.347932105089837906e-02
-6.054173311812943020e-02
-6.711534942448020569e-02
-7.320651919528360640e-02
-7.882159165587435123e-02
-8.396691603160137685e-02
-8.864884154779510694e-02
-9.287371742980288225e-02
-9.664789290295669466e-02
-9.997771719260234446e-02
-1.028695395240756677e-01
-1.053297091227139992e-01
-1.073645752138608772e-01
-1.089804870228520683e-01
-1.101837937750296537e-01
-1.109808446957308292e-01
-1.113779890102962328e-01
-1.113815759440644759e-01
-1.109979547223748225e-01
-1.102334745705664393e-01
-1.090944847139796864e-01
-1.075873343779519542e-01
-1.057198800613429329e-01
-1.035094576710184761e-01
-1.009770792597569494e-01
-9.814376495837255632e-02
-9.503053489768592543e-02
-9.165840920851865692e-02
-8.804840802168353853e-02
-8.422155146800527903e-02
-8.019885967829588902e-02
-7.600135278338086831e-02
-7.165005091407150584e-02
-6.716597420119391204e-02
-6.257014277555886239e-02
-5.788357676798878970e-02
-5.312729630930640434e-02
-4.832232153032208627e-02
-4.348967256186263980e-02
-3.865036953473832693e-02
-3.382543257977602136e-02
-2.903588182778599203e-02
-2.430273740959505713e-02
-1.964701945601357580e-02
-1.508974809786429831e-02
-1.065194346596954993e-02
-6.354625691140244025e-03
-2.218814904202372641e-03
1.734468764032654712e-03
5.484205182739473536e-03
9.009374221105950070e-03
1.228895574831020965e-02
1.530241678483756571e-02
1.804292367044749504e-02
2.051889064709746385e-02
2.273952993864642932e-02
2.471405376894517808e-02
2.645167436185179299e-02
2.796160394121791765e-02
2.925305473090081265e-02
3.033523895475377305e-02
3.121736883663077042e-02
3.190865660038796903e-02
3.241831446987886167e-02
3.275555466895895690e-02
3.292958942148235119e-02
3.294963095130397368e-02
3.282489148227829556e-02
3.256458323826025292e-02
3.217791844310407406e-02
3.167410932066505591e-02
3.106236809479699310e-02
3.035190698935559886e-02
2.955193822819430008e-02
2.867167403516912919e-02
2.772032663413323897e-02
2.670710824894200267e-02
2.564123110345103984e-02
2.453190742151315634e-02
2.338834942698493277e-02
2.221976934371906048e-02
2.103537939557218947e-02
1.984439143787420159e-02
1.865452215919205167e-02
1.746859024296024826e-02
1.628841296388388107e-02
1.511580759666801381e-02
1.395259141601466746e-02
1.280058169662990318e-02
1.166159571321577840e-02
1.053745074047831437e-02
9.429964053119620562e-03
8.340952925844722504e-03
7.272234633358593686e-03
6.225626450363438112e-03
5.202945651565104440e-03
4.206009511665888614e-03
3.236635305371559062e-03
2.296640307384489790e-03
1.387841792410354682e-03
5.120570351516344314e-04
-3.288966896868133734e-04
-1.133202107400263850e-03
-1.899041943286051883e-03
-2.624598922638808358e-03
-3.308055770755730790e-03
-3.947595212931595890e-03
-4.541399974463447217e-03
-5.087652780646669502e-03
-5.584536356776797529e-03
-6.030233428150640236e-03
-6.422926720063375054e-03
-6.760798957811631378e-03
-7.042255967647052632e-03
-7.268222294410558830e-03
-7.441212622046992908e-03
-7.563766614582854639e-03
-7.638423936044177152e-03
-7.667724250457153175e-03
-7.654207221848030943e-03
-7.600412514243031804e-03
-7.508879791668259147e-03
-7.382148718150073098e-03
-7.222758957714446940e-03
-7.033250174387857892e-03
-6.816162032196176022e-03
-6.574034195165753651e-03
-6.309406327323027232e-03
-6.024818092693740197e-03
-5.722809155304581404e-03
-5.405919179181228364e-03
-5.076687828350424578e-03
-4.737654766837797252e-03
-4.391359658669831412e-03
-4.040342167873029432e-03
-3.687141958472987726e-03
-3.334298694496507908e-03
-2.984352039969183790e-03
-2.639841658917814384e-03
-2.303307215368003043e-03
-1.977288373346528395e-03
-1.664324796879028054e-03
-1.366956149991984878e-03
-1.087710156522301392e-03
-8.280467236116985895e-04
-5.875288664433562201e-04
-3.655244817286187929e-04
-1.614014661796322862e-04
2.547228349219563993e-05
1.957288705749204690e-04
3.500003983566541375e-04
4.889189701259034080e-04
6.131166891706665281e-04
7.232256587793964601e-04
8.198779822401418673e-04
9.037057628413087658e-04
9.753411038709903797e-04
1.035416108617550008e-03
1.084562880369159803e-03
1.123413522414029976e-03
1.152600138040467013e-03
1.172754830536658572e-03
1.184509703190878612e-03
1.188496859291344934e-03
1.185348402126303741e-03
1.175696434983998853e-03
1.160173061152652407e-03
1.139410383920510389e-03
1.114040506575834834e-03
1.084695532406821858e-03
1.052007564701759948e-03
1.016608706748832209e-03
9.791310618363379716e-04
9.402067332524514497e-04
9.004054101536201156e-04
8.599493325099826987e-04
8.189405446557873657e-04
7.774809751576771451e-04
7.356725525821519512e-04
6.936172054958565474e-04
6.514168624652906308e-04
6.091734520570989651e-04
5.669889028377813559e-04
5.249651433739457038e-04
4.832041022322010478e-04
4.418077079790469768e-04
4.008778891811274410e-04
3.605165744049436557e-04
3.208256922171379990e-04
2.819071711842134208e-04
2.438629398727773067e-04
2.067949268494333290e-04
1.708050606806899127e-04
1.359952699331811149e-04
1.024674831734191687e-04
7.032362896803414688e-05
3.966563588354248395e-05
1.059543248656961581e-05
-1.678505265636269169e-05
-4.237389097865616532e-05
-6.606915391371890830e-05
-8.776891289501975442e-05
-1.073712393559489464e-04
-1.247742047299681351e-04
-1.398801678563327516e-04
-1.526908051981156790e-04
-1.633075053769009590e-04
-1.718360233275193047e-04
-1.783821139847730777e-04
-1.830515322834712800e-04
-1.859500331584344334e-04
-1.871833715444697240e-04
-1.868573023763915207e-04
-1.850775805890126746e-04
-1.819499611171424588e-04
-1.775801988955941040e-04
-1.720740488591853399e-04
-1.655372659427188804e-04
-1.580756050810182831e-04
-1.497948212088830633e-04
-1.408006692611395432e-04
-1.311989041725846632e-04
-1.210952808780471716e-04
-1.105955543123219757e-04
-9.980547941022994973e-05
-8.883081110659305207e-05
-7.777730433620465875e-05
-6.675071403389601159e-05
-5.585679513446054767e-05
-4.520130257272920386e-05
-3.488999128349576281e-05
-2.502861620158215576e-05
-1.572293226180843692e-05
-7.078694398970939354e-06
7.983708995242020627e-07
7.834422836343587210e-06
1.404861341260400945e-05
1.947695552963651220e-05
2.415546208875207030e-05
2.812014599127904483e-05
3.140702013853345219e-05
3.405209743183364998e-05
3.609139077250453489e-05
3.756091306186286533e-05
3.849667720123156611e-05
3.893469609192925233e-05
3.891098263527703952e-05
3.846154973259529783e-05
3.762241028520351652e-05
3.642957719442233678e-05
3.491906336157351789e-05
3.312688168797478050e-05
3.108904507494953729e-05
2.884156642381458733e-05
2.642045863589412259e-05
2.386173461250427127e-05
2.120140725496745673e-05
1.847548946460637678e-05
1.571999414273667173e-05
1.297093419068340431e-05
1.026432250976214875e-05
7.636172001297888165e-06
5.122495566606401779e-06
2.759306107012341498e-06
5.826165238319532712e-07
-1.374351811370187623e-06
-3.105801515371907253e-06
-4.621500774885517234e-06
-5.931396434522218744e-06
-7.045435338898089968e-06
-7.973564332625046770e-06
-8.725730260318497332e-06
-9.311879966591406142e-06
-9.741960296057303512e-06
-1.002591809333075821e-05
-1.017370020302509896e-05
-1.019525346975439985e-05
-1.010052473813246056e-05
-9.899460852772923195e-06
-9.602008658289958430e-06
-9.218114999296891590e-06
-8.757726720407766285e-06
-8.230790666236893787e-06
-7.647253681397206401e-06
-7.017062610503517691e-06
-6.350164298168569377e-06
-5.656505589007328336e-06
-4.946033327632430411e-06
-4.228694358658297836e-06
-3.514435526699379103e-06
-2.813203676368263891e-06
-2.134945652279980487e-06
-1.489608299047195650e-06
-8.871384612848313629e-07
-3.374829836056769934e-07
1.494877740811558635e-07
5.688834840287814200e-07
9.237664731840711485e-07
1.217911218681787886e-06
1.455092197657404946e-06
1.639083887245497043e-06
1.773660764581346697e-06
1.862597306799699407e-06
1.909667991035687342e-06
1.918647294424202540e-06
1.893309694100231691e-06
1.837429667198735654e-06
1.754781690854775024e-06
1.649140242203181274e-06
1.524279798379112832e-06
1.383974836517329175e-06
1.231999833753043786e-06
1.072129267220974849e-06
9.081376140562239342e-07
7.437993513939155886e-07
5.828889563687454423e-07
4.291809061159582149e-07
2.864496777702651009e-07
1.584697484668881617e-07
4.901559534058030825e-08
-3.813830447349431404e-08
-9.921747384050889059e-08
-1.304474356253994376e-07
-1.280537126932031917e-07
-8.826182790894193116e-08
-7.297304137710067370e-09
1.174174301872044423e-07
2.825516824510405039e-07
4.829548969800287062e-07
7.134760098479681067e-07
9.689639571285511958e-07
1.244267674896113150e-06
1.534236099224132372e-06
1.833718166187028212e-06
2.137562811858192147e-06
2.440618972312080584e-06
2.737735583622102575e-06
3.023761581862683611e-06
3.293545903107476691e-06
3.541937483430214432e-06
3.763785258905224070e-06
3.953938165606062888e-06
4.107245139606976806e-06
4.218555116981608657e-06
4.282717033804114577e-06
4.294579826148283086e-06
4.248992430088047552e-06
4.140803781697297294e-06
3.964862817050148635e-06
3.716018472220197823e-06
3.389119683281804279e-06
2.979015386308344022e-06
2.480554517374434820e-06
1.888586012553132511e-06
1.197958807918759249e-06
4.035218395459463545e-07
-4.993054965038065770e-07
-1.504057890964164533e-06
-2.594266838806950574e-06
-3.753102561460932019e-06
-4.963735280358764704e-06
-6.209335216929060303e-06
-7.473072592604663119e-06
-8.738117628815137314e-06
-9.987640546990031809e-06
-1.120481156856217184e-05
-1.237280091496015258e-05
-1.347477880761666542e-05
-1.449391546796042412e-05
-1.541338111742390155e-05
-1.621634597743683976e-05
-1.688598026942934500e-05
-1.740545421483319897e-05
-1.775793803507824876e-05
-1.792660195159572717e-05
-1.789461618581601662e-05
-1.764515095916975698e-05
-1.716137649308802863e-05
-1.642646300900067185e-05
-1.542358072833859760e-05
-1.413589987253378069e-05
-1.254659066301459436e-05
-1.063882332121446355e-05
-8.395768068560785724e-06
-5.800595126488107284e-06
-2.836474716422555139e-06
5.133820518180172353e-07
4.246116901844715566e-06
8.307765207536146440e-06
1.263615891853760131e-05
1.716912998450535171e-05
2.184451035508015325e-05
2.660013197991899404e-05
3.137382680866222481e-05
3.610342679096688280e-05
4.072676387647754373e-05
4.518167001483939995e-05
4.940597715570833675e-05
5.333751724872619901e-05
5.691412224354843835e-05
6.007362408981752305e-05
6.275385473718776632e-05
6.489264613530341182e-05
6.642783023381667890e-05
6.729723898237435233e-05
6.743870433062516844e-05
6.679005822821799910e-05
6.528913262480299010e-05
6.287375947002605886e-05
5.948177071354031917e-05
5.505099830498857137e-05
4.951927419402197769e-05
4.282443033029552219e-05
3.490429866344657063e-05
2.569671114313718148e-05
1.513949971900042436e-05
3.170496340703331511e-06
-1.025147866306001844e-05
-2.498722553377842032e-05
-4.080563312058837209e-05
-5.747485900064157875e-05
-7.476306075108775644e-05
-9.243839594912038582e-05
-1.102690221718737501e-04
-1.280230969965428275e-04
-1.454687780002613252e-04
-1.623742227602233677e-04
-1.785075888535642748e-04
-1.936370338574768023e-04
-2.075307153491091992e-04
-2.199567909056176292e-04
-2.306834181041862557e-04
-2.394787545219612135e-04
-2.461109577361216515e-04
-2.503481853238225408e-04
-2.519585948622325407e-04
-2.507103439285129649e-04
-2.463715900998320659e-04
-2.387104909533467666e-04
-2.274952040662355651e-04
-2.124938870156412355e-04
-1.934746973787569669e-04
-1.702057927327118182e-04
-1.424553306547122599e-04
-1.099914687218734731e-04
-7.258236451138116605e-05
-2.999617560043937002e-05
1.799028824458147506e-05
7.117316928588800576e-05
1.287348150603845592e-04
1.898100239269818698e-04
2.535335942447910292e-04
3.190403243727692943e-04
3.854650126698692600e-04
4.519424574952096208e-04
5.176074572076857800e-04
5.815948101664231542e-04
6.430393147303152491e-04
7.010757692584788621e-04
7.548389721098231657e-04
8.034637216434476099e-04
8.460848162183144932e-04
8.818370541933998833e-04
9.098552339277755831e-04
9.292741537803991207e-04
9.392286121103184462e-04
9.388534072765187350e-04
9.272833376380147609e-04
9.036532015538292122e-04
8.670977973829342537e-04
8.167519234843466109e-04
7.517503782171410139e-04
6.712279599402140584e-04
5.743194670127104058e-04
4.601596977934726586e-04
3.278834506417081449e-04
1.766255239161965834e-04
5.520715976047290557e-06
-1.856741631548203947e-04
-3.944765845679108914e-04
-6.176576032831073608e-04
-8.519882551596658863e-04
-1.094239576056035661e-03
-1.341182601831531233e-03
-1.589588368344579082e-03
-1.836227911454481722e-03
-2.077872267019893748e-03
-2.311292470899476044e-03
-2.533259558952505753e-03
-2.740544567037476575e-03
-2.929918531013603420e-03
-3.098152486739441571e-03
-3.242017470074145223e-03
-3.358284516876420579e-03
-3.443724663005083564e-03
-3.495108944319143957e-03
-3.509208396677389492e-03
-3.482794055938700714e-03
-3.412636957962017145e-03
-3.295508138606067974e-03
-3.128178633729935838e-03
-2.907419479192189030e-03
-2.630001710851830390e-03
-2.292696364568042738e-03
-1.892274476199097728e-03
-1.425507081604579333e-03
-8.891652166425362963e-04
-2.800199171727607572e-04
4.064971343426854351e-04
1.196895195383649701e-03
2.135601598974216572e-03
3.267568097575241064e-03
4.637746443647025249e-03
6.291088389653062656e-03
8.272545688051436211e-03
1.062707009130733210e-02
1.339961335187747279e-02
1.663512722222827700e-02
2.037856345481871972e-02
2.467487380210640208e-02
2.956901001655970820e-02
3.510592385063151383e-02
4.133056705679273579e-02
4.828789138749363385e-02
5.602284859520813287e-02
6.458039043238383847e-02
7.400546865149609799e-02
8.434303500500019146e-02
9.563804124534706907e-02
1.079354391250169631e-01
1.212801803964503600e-01
1.357172168121315858e-01
1.512915001244968805e-01
1.680479820860344697e-01
1.860316144491924728e-01
2.052873489664152895e-01
2.258601373901972520e-01
2.477949314729647190e-01
2.711366863653303927e-01
2.959312316852498737e-01
3.222264298146428341e-01
3.500704313080225116e-01
3.795113867199963464e-01
4.105974466050985039e-01
4.433767615178610955e-01
4.778974820128975010e-01
5.142077586447068027e-01
5.523557419679122615e-01
5.923895825370059098e-01
6.343574309066161154e-01
6.783074376312296927e-01
7.242877532654797834e-01
7.723465283638890622e-01
8.225319134809725430e-01
8.748920591713755801e-01
9.294751159895666692e-01
9.863292344901980480e-01
1.045502565227732550e+00
1.107043258756827964e+00
1.170999465631996639e+00
1.237419336407737269e+00
1.306351021638723076e+00
1.377842671879393466e+00
1.451942437684432985e+00
1.528698469608270383e+00
1.608158918205599308e+00
1.690371934030839407e+00
1.775385667638691434e+00
1.863248269583646088e+00
1.953991707333681438e+00
2.047525743444915225e+00
2.143704332953790814e+00
2.242381144699094886e+00
2.343409847519276390e+00
2.446644110253126225e+00
2.551937601739183048e+00
2.659143990815968195e+00
2.768116946322289440e+00
2.878710137096576638e+00
2.990777231977641115e+00
3.104171899803908286e+00
3.218747809414195249e+00
3.334358629646921202e+00
3.450858029340907240e+00
3.568099677334672482e+00
3.685937242466735597e+00
3.804224393575920349e+00
3.922814799500639715e+00
4.041562129079717458e+00
4.160320051151570553e+00
4.278942234555024982e+00
4.397282348128491947e+00
4.515194060710797430e+00
4.632531041140457440e+00
4.749146958255993312e+00
4.864895480896224811e+00
4.979630277899569357e+00
5.093205018104847603e+00
5.205473370350482298e+00
5.316288187006525945e+00
5.425470807040284171e+00
5.532801763132740192e+00
5.638058873923817771e+00
5.741019958053072969e+00
5.841462834160421558e+00
5.939165320885429367e+00
6.033905236868002397e+00
6.125460400747714473e+00
6.213608631164463603e+00
6.298127746757903545e+00
6.378795566167706710e+00
6.455389908033748902e+00
6.527688590995637696e+00
6.595469433693234684e+00
6.658510254766162539e+00
6.716588872854265091e+00
6.769483106597224520e+00
6.816970774634742547e+00
6.858829695606636356e+00
6.894837688152573918e+00
6.924772570912353764e+00
6.948412162525661628e+00
6.965534281632278280e+00
6.975916746871909879e+00
6.979337376884314992e+00
6.975573990309216654e+00
6.964404405786368990e+00
6.945606441955487043e+00
6.918957917456344475e+00
6.884236650981958583e+00
6.841292739536010359e+00
6.790257592463921021e+00
6.731331049313521220e+00
6.664712949632449757e+00
6.590603132968495537e+00
6.509201438869474110e+00
6.420707706882979870e+00
6.325321776556911857e+00
6.223243487438843147e+00
6.114672679076692319e+00
5.999809191018010246e+00
5.878852862810631130e+00
5.752003534002406049e+00
5.619461044140856565e+00
5.481425232773955436e+00
5.338095939449201133e+00
5.189673003714581512e+00
5.036356265117582609e+00
4.878345563206210045e+00
4.715840737527930315e+00
4.549041627630619367e+00
4.378148073062166468e+00
4.203359913370019463e+00
4.024876988102218611e+00
3.842899136806196658e+00
3.657626199030008962e+00
3.469258014321075390e+00
3.277994422227295424e+00
3.084035262296578761e+00
2.887580374076331502e+00
2.688836397332572403e+00
2.488105167632371995e+00
2.285758587965992739e+00
2.082170187419639884e+00
1.877713495080222117e+00
1.672762040033941577e+00
1.467689351367531314e+00
1.262868958167725486e+00
1.058674389520724679e+00
8.554791745134395775e-01
6.536568422320742089e-01
4.535809217635334289e-01
2.556249421940282041e-01
6.016243261045589596e-02
-1.324330779009646464e-01
-3.217880602535062584e-01
-5.075289853604547652e-01
-6.892823241355742203e-01
-8.666745474919945735e-01
-1.039332126343466056e+00
-1.206881531603134272e+00
-1.368949234184733132e+00
-1.525161705001557566e+00
-1.675145414966926483e+00
-1.818526834994541153e+00
-1.954932435997598361e+00
-2.083988688889776508e+00
-2.205322064584299024e+00
-2.318559033994816776e+00
-2.423326068034580061e+00
-2.519250686147337159e+00
-2.606125569774672357e+00
-2.684087157118705491e+00
-2.753314791222534197e+00
-2.813987815128999426e+00
-2.866285571881167282e+00
-2.910387404521910693e+00
-2.946472656094265563e+00
-2.974720669641154114e+00
-2.995310788205522545e+00
-3.008422354830368128e+00
