1.082683361342923867e+00
1.068180191031669057e+00
1.030855472448575227e+00
9.724119083035501765e-01
8.961184456716596580e-01
8.052630793464065073e-01
7.031473747767288396e-01
5.930864680670017153e-01
4.784090659770356968e-01
3.624574459220782918e-01
2.485874559728121769e-01
1.401644042764788045e-01
3.983209812862237298e-02
-5.123110810624165179e-02
-1.321933302483300765e-01
-2.024544858739952269e-01
-2.616462943157238374e-01
-3.096322766621372180e-01
-3.465077557579920309e-01
-3.725998562041791251e-01
-3.884675043577250908e-01
-3.949014283317901497e-01
-3.929241579956705421e-01
-3.837900249747966952e-01
-3.689851626507338334e-01
-3.501438114625906595e-01
-3.284542535555407539e-01
-3.049939855187194238e-01
-2.807419876732963893e-01
-2.565482325987967771e-01
-2.331336851331002324e-01
-2.110903023724411132e-01
-1.908810336714088784e-01
-1.728398206429475892e-01
-1.571715971583562965e-01
-1.439522893472887088e-01
-1.331288155977534138e-01
-1.245190865561139892e-01
-1.178120051270885038e-01
-1.125674664737501551e-01
-1.082163580175266593e-01
-1.043647484722857177e-01
-1.010942404643743742e-01
-9.829546498437585766e-02
-9.586470291019916212e-02
-9.370744267024921914e-02
-9.173838024342712005e-02
-8.988141915913028246e-02
-8.806967049725206165e-02
-8.624545288818197264e-02
-8.436029251280557917e-02
-8.237492310250471572e-02
-8.025928593915726550e-02
-7.799252985513710490e-02
-7.556301123331449210e-02
-7.296829400705562296e-02
-7.021514966022268656e-02
-6.731955722717442026e-02
-6.430630355386784958e-02
-6.116133589339395327e-02
-5.785624340942957522e-02
-5.438220357382272940e-02
-5.073105129031380001e-02
-4.689527889453481979e-02
-4.286803615401013623e-02
-3.864313026815607843e-02
-3.421502586828095716e-02
-2.957884501758517581e-02
-2.473036721116117498e-02
-1.966602937599337686e-02
-1.438292587095829633e-02
-8.878808486824485424e-03
-3.152086446252533314e-03
2.798173596204878155e-03
8.972247554103307543e-03
1.536975390910588768e-02
2.198965371098382526e-02
2.883025057761656740e-02
3.588919069499119097e-02
4.316346281720279121e-02
5.064939826645442622e-02
5.834267093305733898e-02
6.623829727543051327e-02
7.433063632010089572e-02
8.261338966170345133e-02
9.107960146298121895e-02
9.975669004295101283e-02
1.086607917056078287e-01
1.177635682367299541e-01
1.270371507346537143e-01
1.364541531058948154e-01
1.459876720651479554e-01
1.556112871352880456e-01
1.652990606473688784e-01
1.750255377406240154e-01
1.847657463624662322e-01
1.944951972684880737e-01
2.041898840224615208e-01
2.138262829963375466e-01
2.233813533702471155e-01
2.328325371325005166e-01
2.421577590795872537e-01
2.513354268161767102e-01
2.603444307551174841e-01
2.691641441174373872e-01
2.777744229323443337e-01
2.861556060372252297e-01
2.942885150776464176e-01
3.021544545073541199e-01
3.097352115882735513e-01
3.170130563905094734e-01
3.239707417923463062e-01
3.305915034802479058e-01
3.368590599488574533e-01
3.427576125009977881e-01
3.482718452476709636e-01
3.533869251080585805e-01
3.580885018095217864e-01
3.623627078876011653e-01
3.661961586860168483e-01
3.695759523566681803e-01
3.724896698596342759e-01
3.749253749631733523e-01
3.768716142437232852e-01
3.783174170859016083e-01
3.792522956825051805e-01
3.796662450345096307e-01
3.795497429510714671e-01
3.788937500495255239e-01
3.776897097553865157e-01
3.759238162923942417e-01
3.735299778337072274e-01
3.705174075514040544e-01
3.669187493192784810e-01
3.627660198950631854e-01
3.580906089204293208e-01
3.529232789209869603e-01
3.472941653062847633e-01
3.412327763698106420e-01
3.347679932889907617e-01
3.279280701251902075e-01
3.207406338237128729e-01
3.132326842138012379e-01
3.054305940086369242e-01
2.973601088053399177e-01
2.890463470849694572e-01
2.805138002125224794e-01
2.717863324369359512e-01
2.628871808910849817e-01
2.538389555917834883e-01
2.446636394397840863e-01
2.353825882197781993e-01
2.260165306003962815e-01
2.165855681342071515e-01
2.071091752577186584e-01
1.976061992913772380e-01
1.880948604395681345e-01
1.785927517906155115e-01
1.691168393167822304e-01
1.596834618742694056e-01
1.503083312032178487e-01
1.410065319277062912e-01
1.317925215557527174e-01
1.226801304793136982e-01
1.136825619742847238e-01
1.048123922004997599e-01
9.608157020173152540e-02
8.750141790569199163e-02
7.908263012403116132e-02
7.083527455233867842e-02
6.276879177014227373e-02
5.489199524090843108e-02
4.721307131204266483e-02
3.973957921488940892e-02
3.247845106473135068e-02
2.543599186079048557e-02
1.861787948622728450e-02
1.202916470814052730e-02
5.674271177568690483e-03
-4.430045705116625321e-04
-6.319493117184937780e-03
-1.195265215959678828e-02
-1.734056651095433610e-02
-2.248194810052561721e-02
-2.737613597364008111e-02
-3.202309629168853533e-02
-3.642241817259933567e-02
-4.057548663771037845e-02
-4.449064836788407806e-02
-4.817647648158424056e-02
-5.164138119989392095e-02
-5.489360984651581177e-02
-5.794124684777179901e-02
-6.079221373260329520e-02
-6.345426913257129486e-02
-6.593500878185598602e-02
-6.824186551725708316e-02
-7.038210927819393836e-02
-7.236284710670493059e-02
-7.419102314744824289e-02
-7.587341864770130728e-02
-7.741665195736086025e-02
-7.882717852894349786e-02
-8.011129091758478760e-02
-8.127511878103998999e-02
-8.232462887968372556e-02
-8.326562507651008582e-02
-8.410374833713252229e-02
-8.484447672978401300e-02
-8.549312542531678494e-02
-8.605484669720281365e-02
-8.653462992153321265e-02
-8.693730157701862193e-02
-8.726752524498920804e-02
-8.752980160939449750e-02
-8.772846845680332128e-02
-8.786770067640420345e-02
-8.795151026000486150e-02
-8.798374630203265045e-02
-8.796809499953411882e-02
-8.790807965217556363e-02
-8.780706066224230888e-02
-8.766823553463959362e-02
-8.749463887689168384e-02
-8.728914239914248308e-02
-8.705445491415525483e-02
-8.679312233731262261e-02
-8.650752768661690295e-02
-8.619989108268955036e-02
-8.587226974877160135e-02
-8.552655801072361896e-02
-8.516448729702530418e-02
-8.478762613877610654e-02
-8.439738016969466905e-02
-8.399499212611921672e-02
-8.358154184700739009e-02
-8.315794627393613414e-02
-8.272495945110208693e-02
-8.228317252532096893e-02
-8.183301374602830469e-02
-8.137423170286667284e-02
-8.090362662113848025e-02
-8.042200315028036339e-02
-7.993096778200131647e-02
-7.943203741550192154e-02
-7.892663935747390447e-02
-7.841611132210091206e-02
-7.790170143105762390e-02
-7.738456821351058501e-02
-7.686578060611753971e-02
-7.634631795302798674e-02
-7.582707000588262414e-02
-7.530883692381379335e-02
-7.479232927344525717e-02
-7.427816802889231074e-02
-7.376688457176167057e-02
-7.325892069115158556e-02
-7.275462858365172591e-02
-7.225427085334329425e-02
-7.175802051179902552e-02
-7.126596097808285402e-02
-7.077808607875052394e-02
-7.029430004784925634e-02
-6.981441752691747160e-02
-6.933816356498528899e-02
-6.886517361857424913e-02
-6.839499355169725847e-02
-6.792707963585903341e-02
-6.746079855005537862e-02
-6.699542738077390869e-02
-6.653015362199338201e-02
-6.606407517518436689e-02
-6.559620034930868648e-02
-6.512544786081975179e-02
-6.465064683366245069e-02
-6.417053679927292587e-02
-6.368376769657935199e-02
-6.318889987200076996e-02
-6.268440407944797510e-02
-6.216866148032329509e-02
-6.163996364352042345e-02
-6.109651254542464160e-02
-6.053642056991259679e-02
-5.995771050835246863e-02
-5.935831555960391359e-02
-5.873607933001812054e-02
-5.808875583343764415e-02
-5.741400949119657149e-02
-5.670941513212057750e-02
-5.597245799252670295e-02
-5.520053371622335447e-02
-5.439094835451069310e-02
-5.354091836618007916e-02
-5.265547205792764363e-02
-5.174138369701902773e-02
-5.077940748102349744e-02
-4.974994155471929025e-02
-4.863401169333364527e-02
-4.741327130254296973e-02
-4.607000141847295005e-02
-4.458711070769821871e-02
-4.294813546724285391e-02
-4.113723962457999095e-02
-3.913921473763187775e-02
-3.693947999477015243e-02
-3.452408221481539918e-02
-3.187969584703753689e-02
-2.899362297115554155e-02
-2.585379329733772380e-02
-2.244876416620145143e-02
-1.876772054881326035e-02
-1.480047504668902114e-02
-1.053746789179360599e-02
-5.969766946541221753e-03
-1.089067703794965869e-03
4.112306713132396485e-03
9.641405550479431597e-03
1.550465042403514904e-02
2.170783531913950126e-02
2.825612659068343913e-02
3.515406296310846779e-02
4.240555553040697978e-02
5.001388775612236604e-02
5.798171547334868281e-02
6.631762146390551838e-02
7.507693754548477871e-02
8.421350655418857745e-02
9.365562958375456271e-02
1.033336358527181531e-01
1.131798827044115940e-01
1.231287556069649014e-01
1.331166681533055840e-01
1.430820620611583660e-01
1.529654071730454090e-01
1.627092014562859790e-01
1.722579710029974454e-01
1.815582700300938379e-01
1.905586808792871789e-01
1.992098140170863729e-01
2.074643080347980950e-01
2.152768296485262356e-01
2.226040736991720115e-01
2.294047631524344100e-01
2.356396490988096337e-01
2.412715107535907677e-01
2.462651554568691115e-01
2.505874186735328468e-01
2.542071639932678151e-01
2.570952831305571840e-01
2.592246959246813365e-01
2.605703503397182041e-01
2.611092224645432669e-01
2.608203165128289980e-01
2.596846648230457522e-01
2.576853278584610996e-01
2.548073942071399367e-01
2.510186631243533917e-01
2.463466689610773752e-01
2.408772032615156267e-01
2.346931358254125133e-01
2.278743050344865795e-01
2.204975178524294366e-01
2.126365498249060959e-01
2.043621450795553018e-01
1.957420163259889767e-01
1.868408448557926649e-01
1.777202805425254217e-01
1.684389418417197026e-01
1.590524157908811409e-01
1.496132580094893250e-01
1.401709926989970212e-01
1.307721126428305070e-01
1.214600792063893486e-01
1.122753223370469566e-01
1.032552405641499194e-01
9.443420099901828069e-02
8.584353933494565103e-02
7.751155984719915182e-02
6.946353539301902691e-02
6.172170741161941976e-02
5.430528592418776279e-02
4.723044953388488842e-02
4.051034542584508458e-02
3.415508936717603916e-02
2.817176570695933968e-02
2.256442737624947403e-02
1.733409588807455215e-02
1.247876133743630600e-02
7.993382401309701013e-03
3.869886338643546697e-03
9.716899035955295361e-05
-3.353805590883385257e-03
-6.514358147856558201e-03
-9.409527993592015083e-03
-1.207781616475822606e-02
-1.457119136248902214e-02
-1.695508995238326211e-02
-1.930841596450444397e-02
-2.172354109338142658e-02
-2.430630469800765248e-02
-2.717601380184192505e-02
-3.046544309280779794e-02
-3.432083492329390806e-02
-3.890189931015375358e-02
-4.438181393470602698e-02
-5.094722414273411548e-02
-5.879824294448676714e-02
-6.814969360711481405e-02
-7.913911998017675309e-02
-9.160203313903031441e-02
-1.052517019949464894e-01
-1.197176612557629416e-01
-1.345457114258838405e-01
-1.491979188062799166e-01
-1.630526154944886841e-01
-1.754043993846140237e-01
-1.854641341673264887e-01
-1.923589493298629438e-01
-1.951322401560279807e-01
-1.927436677261914200e-01
-1.840691589172903375e-01
-1.679017203790046375e-01
-1.438696285587567902e-01
-1.113064546052310311e-01
-6.900828759954108493e-02
-1.623314383034890618e-02
4.729903320613476625e-02
1.214063728061508529e-01
2.054450770583917674e-01
2.983094208440013606e-01
3.984317518365747546e-01
5.037824905021588417e-01
6.118701300992522851e-01
7.197412366788041860e-01
8.239804490842160822e-01
9.207104789513412824e-01
1.005840448155516320e+00
1.075880306114665785e+00
1.127829372929013640e+00
1.159484906650202873e+00
1.169456204868049465e+00
1.157164604710540612e+00
1.122843482843837393e+00
1.067538255472271658e+00
9.931063783383472510e-01
9.022173467227411203e-01
7.983526954443022072e-01
6.858059988600510026e-01
5.696820808605015385e-01
4.542028964207712738e-01
3.416892387966911082e-01
2.345530798293827823e-01
1.348273061849847299e-01
4.416571935465457566e-02
-3.615696434543308468e-02
-1.052451137740850751e-01
-1.625821829650906380e-01
-2.080307111272204634e-01
-2.418323226442276042e-01
-2.646077270748478094e-01
-2.773567191527973042e-01
-2.812082269468756390e-01
-2.766560543992842569e-01
-2.653058581218848966e-01
-2.487789759681387769e-01
-2.285391125424846015e-01
-2.058923392003380037e-01
-1.819870940480920740e-01
-1.578141819431169157e-01
-1.342067744937598950e-01
-1.118404100593457517e-01
-9.123299375017629442e-02
-7.274479742753070521e-02
-5.657845970366509603e-02
-4.277898594181311909e-02
-3.123374825618530082e-02
-2.167248551196981898e-02
-1.371471708350369134e-02
-7.105899309202690084e-03
-1.656535826769278685e-03
2.810740769904118697e-03
6.461172115000801686e-03
9.447874070778072841e-03
1.191183672756884748e-02
1.398192440378120960e-02
1.577487564589796776e-02
1.739530322847721022e-02
1.893569415415197188e-02
2.047640965363056731e-02
2.208568518569609118e-02
2.381963043720675133e-02
2.572222932309609078e-02
2.782533998637243267e-02
3.014869479811915776e-02
3.269990035749475998e-02
3.547443749173301297e-02
3.845566125614241493e-02
4.161480093410674375e-02
4.491096003708466844e-02
4.829111630461013771e-02
5.175609559973642915e-02
5.539458892727733286e-02
5.921675711040058632e-02
6.323029117433065505e-02
6.744214618900662428e-02
7.185854126908219897e-02
7.648495957392525968e-02
8.132614830761852875e-02
8.638611871895884864e-02
9.166814610145779252e-02
9.717476979334133125e-02
1.029077931775499444e-01
1.088682836817385091e-01
1.150565727782763004e-01
1.214722559842474903e-01
1.281141928614500936e-01
1.349805070163971887e-01
1.420685861003160300e-01
1.493750818091484911e-01
1.568959098835506216e-01
1.646262501088934238e-01
1.725605463152619645e-01
1.806925063774560414e-01
1.890151022149896276e-01
1.975260536013606627e-01
2.062559033494044680e-01
2.151891368963603224e-01
2.242995843031009295e-01
2.335614075564170777e-01
2.429491005690165295e-01
2.524374891795249098e-01
2.620017311524855952e-01
2.716173161783590473e-01
2.812600658735233683e-01
2.909061337802744118e-01
3.005320053668253388e-01
3.101144980273072838e-01
3.196307610817682443e-01
3.290582757761741917e-01
3.383748552824087374e-01
3.475586446982728006e-01
3.565881210474847185e-01
3.654420932796809129e-01
3.740997022704146691e-01
3.825404208211573565e-01
3.907440536592976521e-01
3.986907374381415403e-01
4.063609407369132009e-01
4.137354640607535661e-01
4.207954398407217633e-01
4.275223324337941166e-01
4.338979381228644794e-01
4.399043851167445673e-01
4.455241335501629596e-01
4.507399754837668748e-01
4.555350349041198399e-01
4.598927677237037992e-01
4.637969617809180045e-01
4.672317368400787929e-01
4.701815445914210301e-01
4.726311686510962229e-01
4.745657245611736297e-01
4.759706597896400382e-01
4.768317537304003206e-01
4.771351177032763236e-01
4.768575430478350086e-01
4.759046255099852463e-01
4.742814563464566868e-01
4.720200674077541514e-01
4.691519281236118388e-01
4.657079455029922155e-01
4.617184641340864593e-01
4.572132661843149037e-01
4.522215714003263720e-01
4.467720371079981767e-01
4.408927582124370081e-01
4.346112671979776021e-01
4.279545341281847382e-01
4.209489666458496870e-01
4.136204099729940964e-01
4.059941469108685475e-01
3.980948978399515559e-01
3.899468207199505709e-01
3.815735110898020865e-01
3.729980020676715302e-01
3.642427643509521529e-01
3.553297062162670272e-01
3.462801735194671604e-01
3.371149496956327152e-01
3.278542557590727879e-01
3.185177503033247426e-01
3.091245295011547656e-01
2.996931271045583101e-01
2.902415144447589856e-01
2.807871004322094466e-01
2.713467315565908367e-01
2.619366918868135663e-01
2.525727030710164245e-01
2.432699243365669117e-01
2.340429524900612401e-01
2.249058219173246664e-01
2.158720045834110479e-01
2.069544100326029534e-01
1.981653853884117744e-01
1.895167153535775029e-01
1.810196222100689534e-01
1.726847658190836521e-01
1.645222436210482808e-01
1.565415906356177889e-01
1.487517794616758371e-01
1.411612202773351310e-01
1.337777608399370877e-01
1.266086864860518357e-01
1.196607201314778823e-01
1.129400222712433344e-01
1.064521909796041221e-01
1.002022619100455536e-01
9.419470829528137079e-02
8.843344094725424931e-02
8.292180825713568737e-02
7.766259619532522862e-02
7.265802831145246055e-02
6.790976573437434993e-02
6.341827245487507980e-02
5.917713834567067677e-02
5.517718681939415282e-02
5.140951723754133562e-02
4.786540122444904455e-02
4.453628266729514618e-02
4.141377771609816572e-02
3.848967478371784212e-02
3.575593454585485054e-02
3.320468994105058025e-02
3.082824617068780082e-02
2.861908069898988494e-02
2.656984325302130800e-02
2.467335582268737060e-02
2.292261266073442050e-02
2.131078028274990821e-02
1.983119746716205389e-02
1.847737525523990287e-02
1.724299695109382524e-02
1.612191812167479421e-02
1.510816659677505225e-02
1.419594246902744494e-02
1.337961809390608714e-02
1.265373808972597436e-02
1.201301933764281626e-02
1.145235098165359178e-02
1.096679442859610498e-02
1.055158334814920718e-02
1.020212367283235277e-02
9.913993598006487495e-03
9.682943581873104666e-03
9.504896345474800334e-03
9.375946872695162249e-03
9.292362410258603322e-03
9.250582467730583680e-03
9.247218817517555145e-03
9.279055494867016751e-03
9.343048797866959632e-03
9.436327287446921730e-03
9.556191787376988600e-03
9.700115384268348517e-03
9.865743427573070434e-03
1.005089352958454807e-02
1.025355556543655622e-02
1.047189167310408342e-02
1.070423625340322094e-02
1.094909596999071866e-02
1.120514974936465125e-02
1.147124878086369648e-02
1.174641651666752384e-02
1.202984867179712758e-02
1.232091322411393852e-02
1.261915041432082329e-02
1.292427274596114062e-02
1.323616498541962949e-02
1.355488416192168755e-02
1.388068164129885318e-02
1.421351721545505153e-02
1.455234068286892501e-02
1.489606402167459320e-02
1.524367184145114518e-02
1.559422138322230644e-02
1.594684251945677200e-02
1.630073775406803982e-02
1.665518222241441082e-02
1.700952369129904440e-02
1.736318255896995844e-02
1.771565185511986273e-02
1.806649724088643660e-02
1.841535700885216231e-02
1.876194208304432509e-02
1.910603601893512415e-02
1.944749500344139514e-02
1.978624785492499871e-02
2.012229602319248745e-02
2.045571358949538343e-02
2.078664726652995620e-02
2.111531639843727826e-02
2.144201296080333607e-02
2.176710156065880808e-02
2.209101943647923116e-02
2.241427645818522274e-02
2.273745512714198114e-02
2.306121057615961867e-02
2.338627056949288407e-02
2.371343550284166213e-02
2.404357840335058505e-02
2.437764492960903251e-02
2.471665337165102061e-02
2.506169465095586801e-02
2.541393232044730777e-02
2.577460256449426446e-02
2.614501419891013256e-02
2.652654867095333158e-02
2.692066005932708395e-02
2.732887507417941508e-02
2.775279305710326438e-02
2.819408598113631870e-02
2.865449845076101232e-02
2.913584770190486006e-02
2.964002360193990215e-02
3.016496085639797098e-02
3.070305275549473079e-02
3.126591127979599927e-02
3.186669011663900708e-02
3.251850833390756979e-02
3.323445038003230989e-02
3.402756608399065685e-02
3.491087065530695810e-02
3.589734468405209045e-02
3.699993414084373766e-02
3.823155037684655699e-02
3.960507012377167957e-02
4.113333549387732102e-02
4.282915397996828188e-02
4.470529845539616964e-02
4.677450717405939873e-02
4.904948377040324603e-02
5.154289725941940681e-02
5.426738203664688287e-02
5.723553787817098337e-02
6.045992994062404646e-02
6.395308876118516173e-02
6.772751025757994814e-02
7.179565572808133123e-02
7.616995185150848835e-02
8.086279068722740382e-02
8.588652967515131298e-02
9.125349163573981404e-02
9.697596476999936765e-02
1.030662026594830749e-01
1.095364242662910659e-01
1.163988139330701665e-01
1.236840300321285779e-01
1.314445720436279164e-01
1.396310812453225303e-01
1.481861929608885298e-01
1.570533054945562057e-01
1.661765801311098079e-01
1.755009411358878779e-01
1.849720757547826944e-01
1.945364342142409386e-01
2.041412297212628069e-01
2.137344384634032313e-01
2.232647996087708808e-01
2.326818153060282723e-01
2.419357506843923256e-01
2.509776338536339191e-01
2.597592559040776683e-01
2.682331709066031467e-01
2.763526959126427762e-01
2.840719109541839371e-01
2.913456590437676352e-01
2.981295461744891684e-01
3.043799413199977932e-01
3.100539764344967253e-01
3.151095464527435830e-01
3.195053092900494995e-01
3.232006858422801221e-01
3.261558599858550567e-01
3.283317785777477571e-01
3.296901514554858581e-01
3.301934514371513973e-01
3.298049143213798162e-01
3.284885388873610701e-01
3.261976159637283157e-01
3.229034697058671410e-01
3.186852771461290423e-01
3.136277141863681450e-01
3.078126216394643233e-01
3.013190052293217569e-01
2.942230355908703743e-01
2.865980482700648535e-01
2.785145437238852884e-01
2.700401873203367442e-01
2.612398093384493691e-01
2.521754049682788379e-01
2.429061343109053528e-01
2.334883223784348649e-01
2.239754590939978529e-01
2.144181992917505442e-01
2.048643627168738046e-01
1.953589340255739160e-01
1.859440627850822425e-01
1.766590634736552312e-01
1.675404154805743007e-01
1.586217631061467292e-01
1.499339155617037678e-01
1.415048469696029709e-01
1.333596963632261989e-01
1.255207676869806166e-01
1.180075297962990266e-01
1.108366164576387591e-01
1.040218263484824490e-01
9.757412305733803581e-02
9.150163508373876375e-02
8.580965583824223808e-02
8.050064364243192383e-02
7.557422172891631318e-02
7.102717824132875890e-02
6.685346623432802948e-02
6.323185824196708715e-02
6.045889321448844056e-02
5.827507440800866467e-02
5.642105612333270237e-02
5.466085268791209817e-02
5.278183845584460965e-02
5.059474780787459602e-02
4.793367515139285162e-02
4.465607492043638382e-02
4.064276157568952330e-02
3.579790960448109294e-02
3.004905352078807157e-02
2.334708786523337354e-02
1.566626720508607074e-02
7.004206134262058736e-03
-2.618120726676664844e-03
-1.315637873052150075e-02
-2.454287320341741463e-02
-3.668654944486321456e-02
-4.947299272771099599e-02
-6.276442829816641922e-02
-7.639972137578887601e-02
-9.019437715349137852e-02
-1.039405407975401707e-01
-1.175601220938704561e-01
-1.302094058644108210e-01
-1.398718390623832630e-01
-1.447450622560616518e-01
-1.432851838232597763e-01
-1.342067799513319559e-01
-1.164828946371722629e-01
-8.934503968721496658e-02
-5.228319471743447799e-02
-5.045807153345516216e-03
5.236020776999772419e-02
1.196694670080001854e-01
1.963581197065270567e-01
2.816438472019034966e-01
3.744858630209144668e-01
4.735849128808041764e-01
5.773832746892785250e-01
6.840647585445013279e-01
7.915142346834521669e-01
8.953793211743058533e-01
9.901680228797667960e-01
1.071267900954175900e+00
1.134979169556240564e+00
1.178514695849035121e+00
1.200000000000000178e+00
1.198473255180941610e+00
1.173885287568033675e+00
1.127099576341815013e+00
1.059892253687191754e+00
9.749521047934360807e-01
8.758196125632836671e-01
7.666388527132087516e-01
6.518864581472111341e-01
5.355871611759316364e-01
4.212490995623652257e-01
3.118638165218627911e-01
2.099062607221302557e-01
1.173347862832293531e-01
3.559115277757651796e-02
-3.439947477005533827e-02
-9.222852588253971362e-02
-1.380040246303929075e-01
-1.722183570250659934e-01
-1.941607857593309616e-01
-2.050522357039643584e-01
-2.067332387614370937e-01
-2.009078933818323753e-01
-1.891438645628463200e-01
-1.728723838497876752e-01
-1.533882493355778198e-01
-1.318498256607508745e-01
-1.092790440134534524e-01
-8.656140212944513079e-02
-6.444596429209786814e-02
-4.354536133239667040e-02
-2.433579062893853617e-02
-7.157016107933900084e-03
7.787631756794366478e-03
2.043125594381117738e-02
3.084339288406817703e-02
3.923001246090423999e-02
4.603427346483229821e-02
5.171330141986807405e-02
5.642115586129226035e-02
6.029797904312700352e-02
6.347541977615084319e-02
6.607663342789960037e-02
6.821628192266587787e-02
7.000053374149917129e-02
7.152706392220575804e-02
7.288505405934908588e-02
7.415519230424932884e-02
7.540967336498366480e-02
7.671219850638605342e-02
7.811797555004745819e-02
7.967371887431579092e-02
8.141764941429563418e-02
8.337949466184879643e-02
8.558048866559375689e-02
8.803337203090599861e-02
9.074239191991789744e-02
9.370330205151872205e-02
9.690336270135474495e-02
1.003213407018289649e-01
1.039275094421013845e-01
1.076836488680888992e-01
1.115431702477504006e-01
1.155433865891779543e-01
1.197505176370292634e-01
1.241718285003641231e-01
1.288135900935613032e-01
1.336810791363186590e-01
1.387785781536530205e-01
1.441093754759004142e-01
1.496757652387158410e-01
1.554790473830734987e-01
1.615195276552664483e-01
1.677965176069069475e-01
1.743083345949262286e-01
1.810523017815747204e-01
1.880247481344217153e-01
1.952210084263557022e-01
2.026354232355841445e-01
2.102613389456337023e-01
2.180911077453501212e-01
2.261160876288977883e-01
2.343266423957608424e-01
2.427121416507416196e-01
2.512609608039624298e-01
2.599604810708642244e-01
2.688051177769983369e-01
2.778251913557618913e-01
2.869964306523766773e-01
2.962850212759374768e-01
3.056579462747608389e-01
3.150829861363905193e-01
3.245287187875953716e-01
3.339645195943701239e-01
3.433605613619348240e-01
3.526878143347355055e-01
3.619180461964431883e-01
3.710238220699549894e-01
3.799785045173934561e-01
3.887562535401063446e-01
3.973320265786675076e-01
4.056815785128757845e-01
4.137814616617564445e-01
4.216090257835595212e-01
4.291424180757610340e-01
4.363605831750623221e-01
4.432432631573902659e-01
4.497709975378977321e-01
4.559251232709627955e-01
4.616877747501891838e-01
4.670418838084063884e-01
4.719711797176692203e-01
4.764601891892578100e-01
4.804942363736784960e-01
4.840594428606629362e-01
4.871427276791682193e-01
4.897318072973767533e-01
4.918151956226974875e-01
4.933822040017635802e-01
4.944229412204349527e-01
4.949283135037966241e-01
4.948900245161589329e-01
4.943005753610582031e-01
4.931532645812559679e-01
4.914421881587396346e-01
4.891622180038058820e-01
4.862578725400955593e-01
4.827057186398928668e-01
4.785422664946609173e-01
4.738032735623727287e-01
4.685237445675140000e-01
4.627379315010773375e-01
4.564793336205695828e-01
4.497806974500039301e-01
4.426740167799091408e-01
4.351905326673181085e-01
4.273607334357812926e-01
4.192143546753520633e-01
4.107803792426018008e-01
4.020870372606050180e-01
3.931618061189540159e-01
3.840314104737437839e-01
3.747218222475875438e-01
3.652582606296013168e-01
3.556651920754196894e-01
3.459663303071790486e-01
3.361846363135347904e-01
3.263423183496444446e-01
3.164608319371841061e-01
3.065608798643323363e-01
2.966624121857862617e-01
2.867846262227449206e-01
2.769459665629266931e-01
2.671641250605535367e-01
2.574560408363582020e-01
2.478379002775901174e-01
2.383251370380005119e-01
2.289324320378600675e-01
2.196737134639408229e-01
2.105621567695340479e-01
2.016101846744330350e-01
1.928294671649496417e-01
1.842309214938980810e-01
1.758247121806113533e-01
1.676202510109245924e-01
1.596261970371913863e-01
1.518504565782679006e-01
1.443001832195281997e-01
1.369817778128501473e-01
1.299008884766283956e-01
1.230624105957611736e-01
1.164704868216646094e-01
1.101285070722579640e-01
1.040391085319772868e-01
9.820417565176386976e-02
9.262484014907418350e-02
8.730148100787010756e-02
8.223372447862925538e-02
7.742137091636441815e-02
7.286614788109574414e-02
6.855997195317331538e-02
6.449339530136544152e-02
6.065715830862383751e-02
5.704218957209122864e-02
5.363960590309435617e-02
5.044071232715052755e-02
4.743700208396145479e-02
4.462015662741913857e-02
4.198204562560031716e-02
3.951472696077151792e-02
3.721044672938428333e-02
3.506163924207977844e-02
3.306092702368479408e-02
3.120112081321513298e-02
2.947521956387227915e-02
2.787641044304667304e-02
2.639806883231482493e-02
2.503375832744186846e-02
2.377723073837928469e-02
2.262242608926684495e-02
2.156347261843077900e-02
2.059468677838566242e-02
1.971057323583269572e-02
1.890582487166098113e-02
1.817532278094668996e-02
1.751413627295378417e-02
1.691752287113301723e-02
1.638092831312315534e-02
1.589998655074997824e-02
1.547051975002694535e-02
1.508853829115464062e-02
1.475024076852110566e-02
1.445201399070172865e-02
1.419043298045979951e-02
1.396226097474512207e-02
1.376444942469567945e-02
1.359413799563641279e-02
1.344865456707983187e-02
1.332551523272579308e-02
1.322242430046161044e-02
1.313727429236183353e-02
1.306814594468863611e-02
1.301330820789142750e-02
1.297121824660690814e-02
1.294052143965962465e-02
1.292005138006091514e-02
1.290882987500996393e-02
1.290606694589324643e-02
1.291116082828452916e-02
1.292369797194503622e-02
1.294345304082344938e-02
1.297038891305568598e-02
1.300465668096523197e-02
1.304660941120960871e-02
1.309577220185598190e-02
1.315093218583823775e-02
1.321094740615247343e-02
1.327475757360491171e-02
1.334138406681162348e-02
1.340992993219791707e-02
1.347957988399917095e-02
1.354960030426033413e-02
1.361933924283625919e-02
1.368822641739131374e-02
1.375577321339965797e-02
1.382157268414530016e-02
1.388529955072187461e-02
1.394671020203253065e-02
1.400564269479059876e-02
1.406201675351886893e-02
1.411583377054981270e-02
1.416717680602558316e-02
1.421621058789829251e-02
1.426318151192962347e-02
1.430841764169094033e-02
1.435232870856339993e-02
1.439540611173806273e-02
1.443822291821533765e-02
1.448143386280548173e-02
1.452577534812876658e-02
1.457206544461481235e-02
1.462120389050319824e-02
1.467417209184312954e-02
1.473203312249354857e-02
1.479593172412302371e-02
1.486709430621008243e-02
1.494682894604276724e-02
1.503652538871902422e-02
1.513765504714625898e-02
1.525177100204194724e-02
1.538050800193296874e-02
1.552558246315605128e-02
1.568879246985782627e-02
1.587201777399432912e-02
1.607721979533138779e-02
1.630644162144484488e-02
1.656098996668048384e-02
1.683416008601695824e-02
1.713421102955109410e-02
1.747428582673793418e-02
1.786757714948250531e-02
1.832732731213887467e-02
1.886682827151131558e-02
1.949942162685347480e-02
2.023849861986842802e-02
2.109750013470945706e-02
2.208991669797866209e-02
2.322928847872879343e-02
2.452920528846097570e-02
2.600330658112731674e-02
2.766528145312829867e-02
2.952886864331527583e-02
3.160785653298769926e-02
3.391608314589655837e-02
3.646743614824032864e-02
3.927585284866935700e-02
4.235532019828136541e-02
4.571987479062600279e-02
4.938360286170007107e-02
5.336064028995274322e-02
5.766517259627984560e-02
6.231143494403001970e-02
6.731371213899794981e-02
7.268633862943213453e-02
7.844369850602606054e-02
8.460022550192780599e-02
9.117480212775735948e-02
9.822056606379303556e-02
1.057110130434186779e-01
1.135970981582973272e-01
1.218296174913582330e-01
1.303592081168115646e-01
1.391363481001332003e-01
1.481113564980801600e-01
1.572343933586751730e-01
1.664554597212222209e-01
1.757243976162907728e-01
1.849908900657317723e-01
1.942044610826613171e-01
2.033144756714774237e-01
2.122701398278430407e-01
2.210205005387025912e-01
2.295144457822664297e-01
2.377007045280254971e-01
2.455278467367371098e-01
2.529442833604389484e-01
2.598982663424354023e-01
2.663378886173106697e-01
2.722110841109162127e-01
2.774656277403828586e-01
2.820491354141092533e-01
2.859090640317726306e-01
2.889927114843192646e-01
2.912472166539720186e-01
2.926195594142249057e-01
2.930565606298473069e-01
2.925017205981220725e-01
2.909035038395219042e-01
2.883153048633203541e-01
2.848084677728399683e-01
2.804528206302668858e-01
2.753166754566436225e-01
2.694668282318770647e-01
2.629685588947292540e-01
2.558856313428286011e-01
2.482802934326573396e-01
2.402132769795644052e-01
2.317437977577521124e-01
2.229295555002903662e-01
2.138267338991016731e-01
2.044900006049764629e-01
1.949725072275578786e-01
1.853258893353568748e-01
1.756002664557365645e-01
1.658442420749290935e-01
1.561049036380176558e-01
1.464278225489548113e-01
1.368570541705443899e-01
1.274351378244594768e-01
1.182030967912244268e-01
1.092004383102324061e-01
1.004651535797287387e-01
9.203371775682689382e-02
8.394108995749260949e-02
7.622071325655965790e-02
6.890451468771485732e-02
6.202290524351183887e-02
5.560419611771116877e-02
4.956226411901154538e-02
4.385480856772960845e-02
3.852017392837719933e-02
3.358216039063771641e-02
2.905002386937566294e-02
2.491847600462776535e-02
2.116768416161168842e-02
1.776327143071754211e-02
1.465631662751565312e-02
1.178335429274984802e-02
9.066374692343115438e-03
6.412823817392609982e-03
3.715603384174537283e-03
8.530708341391579630e-04
-2.310960666084049819e-03
-5.927222224691885977e-03
-1.016098922470165533e-02
-1.519208132395710731e-02
-2.121486245512183011e-02
-2.843824082568735534e-02
-3.708634251996900666e-02
-4.734353642353161806e-02
-5.916947350552065332e-02
-7.238623707610153390e-02
-8.670599590919342292e-02
-1.017310042424919847e-01
-1.169536017774449044e-01
-1.317562136792778671e-01
-1.454113505769679682e-01
-1.570816085632693870e-01
-1.658196691946900447e-01
-1.705682994915115602e-01
-1.701603519377742624e-01
-1.633187644812847117e-01
-1.488566565013264564e-01
-1.266391087141403027e-01
-9.525514256113537526e-02
-5.345682662771494842e-02
-5.143066713313437788e-04
6.378419437858895424e-02
1.391323764205516511e-01
2.247058621810877899e-01
3.191621972147210551e-01
4.206408499038951643e-01
5.267632114591248582e-01
6.346325959188158228e-01
7.408342401494526497e-01
8.414353038454090994e-01
9.321459296264106298e-01
1.008904550541241729e+00
1.067910069728870592e+00
1.106295718123478267e+00
1.122175069287790983e+00
1.114642039413018093e+00
1.083770887318876497e+00
1.030616214453603963e+00
9.572129648939079472e-01
8.665764253450546351e-01
7.627022251407448161e-01
6.505663362432677621e-01
5.350923237733046234e-01
4.192780718163451326e-01
3.062760200212079065e-01
1.987999356365514059e-01
9.910479314670689321e-02
8.986774271867004060e-03
-7.021673203208977920e-02
-1.376271295734399214e-01
-1.928246149247558328e-01
-2.358481774227841887e-01
-2.671955991685474041e-01
-2.878204913321996683e-01
-2.980331668876394779e-01
-2.987747864351082971e-01
-2.918590450699899419e-01
-2.789491311728992673e-01
-2.615577264096708987e-01
-2.410470057313811310e-01
-2.186286373743180078e-01
-1.953637828600167659e-01
-1.721630969952209489e-01
-1.497867278719232087e-01
-1.288443168673241157e-01
-1.097949986438719328e-01
-9.294740114922561691e-02
-7.845964561628848699e-02
-6.633934656317830303e-02
-5.642233460010315227e-02
-4.826420011765114593e-02
-4.159089373492735886e-02
-3.619479450312479418e-02
-3.188149313172516930e-02
-2.846979198848875736e-02
-2.579170509946299150e-02
-2.369245814897547042e-02
-2.203048847963912094e-02
-2.067744509234870076e-02
-1.951818864628329653e-02
-1.845079145890410333e-02
-1.738653750595675618e-02
-1.624992242146883203e-02
-1.497865349775240329e-02
-1.352364968540153978e-02
-1.184904159329475126e-02
-9.932171488592489439e-03
-7.763593296739923488e-03
-5.347072601463609409e-03
-2.699586644775431310e-03
1.486756730317839725e-04
3.154313793379437403e-03
6.260715499408597839e-03
9.419579341372996684e-03
1.273377365562605723e-02
1.623716356659721249e-02
1.993828707645206588e-02
2.384481603209032130e-02
2.796355612515227795e-02
3.230044689201189145e-02
3.686056171378465640e-02
4.164810781631878012e-02
4.666642627020456402e-02
5.191799199076502225e-02
5.740441373806492997e-02
6.312643411690205264e-02
6.908392957681602775e-02
7.527591041207876144e-02
8.170052076170508659e-02
8.835503860944121657e-02
9.523587578377701313e-02
1.023385779579329968e-01
1.096578246498739473e-01
1.171874292222948588e-01
1.249203388826350958e-01
1.328486346830647369e-01
1.409635315204976758e-01
1.492553781365780763e-01
1.577139481879792360e-01
1.663544966741521414e-01
1.751707918816250986e-01
1.841345864887955486e-01
1.932180311881094292e-01
2.023936746860455216e-01
2.116344637031313258e-01
2.209137429739266301e-01
2.302052552470404967e-01
2.394831412851140540e-01
2.487219398648375934e-01
2.578965877769336945e-01
2.669824198261737669e-01
2.759551688313621742e-01
2.847909656253513333e-01
2.934663390550269479e-01
3.019582159813228861e-01
3.102439212792064138e-01
3.183011778376922951e-01
3.261081065598293582e-01
3.336432263627137074e-01
3.408854541774756219e-01
3.478141049492923242e-01
3.544088916373756559e-01
3.606499252149839574e-01
3.665177146694106325e-01
3.719931670019952508e-01
3.770575872281125562e-01
3.816926783771834586e-01
3.858805414926642641e-01
3.896036756320568895e-01
3.928449778668993142e-01
3.955877432827737961e-01
3.978156649793018751e-01
3.995128340701450398e-01
4.006637396830070585e-01
4.012532689596306490e-01
4.012601525135787162e-01
4.006106960444660858e-01
3.993089671789171735e-01
3.973813989223692333e-01
3.948541386953824395e-01
3.917530483336433278e-01
3.881037040879610212e-01
3.839313966242721143e-01
3.792611310236342348e-01
3.741176267822341472e-01
3.685253178113784278e-01
3.625083524375031230e-01
3.560905934021642016e-01
3.492956178620471031e-01
3.421467173889569668e-01
3.346668979698289581e-01
3.268788800067170541e-01
3.188050983168063679e-01
3.104677021323997144e-01
3.018885551009318213e-01
2.930892352849544524e-01
2.840910351621522834e-01
2.749149616253260264e-01
2.655817359824096391e-01
2.561117939564534485e-01
2.465252856856406938e-01
2.368420757232708729e-01
2.270817430377766177e-01
2.172635810127067080e-01
2.074065974467436124e-01
1.975295145536850594e-01
1.876507689624624664e-01
1.777885117171236207e-01
1.679606082768488884e-01
1.581846385159355606e-01
1.484778967238132852e-01
1.388573916050285240e-01
1.293398462792606507e-01
1.199416982813050758e-01
1.106790995610906769e-01
1.015679164836622572e-01
9.262372982919797604e-02
8.386183479299214039e-02
7.529724098547196931e-02
6.694467243218127361e-02
5.881856757379655409e-02
5.093307926611118086e-02
4.330207478005065891e-02
3.593913580165813970e-02
2.885755843210785487e-02
2.207035318769290377e-02
1.558599793563708591e-02
9.395232551276444521e-03
3.488943324510218602e-03
-2.141529696370159108e-03
-7.504715580204213143e-03
-1.260901251297352754e-02
-1.746268779779086566e-02
-2.207387785491049526e-02
-2.645058822171852952e-02
-3.060069355274197545e-02
-3.453193761964029607e-02
-3.825193331121312657e-02
-4.176816263339322433e-02
-4.508797670925329681e-02
-4.821859577899911820e-02
-5.116710919997613516e-02
-5.394047544666363825e-02
-5.654552211067959133e-02
-5.898894590077663480e-02
-6.127731264284586032e-02
-6.341705727991264752e-02
-6.541448387214110483e-02
-6.727576559682996171e-02
-6.900694474841606585e-02
-7.061393273847133001e-02
-7.210251009570561864e-02
-7.347832646596386130e-02
-7.474690061222882820e-02
-7.591362041461863219e-02
-7.698374287038900476e-02
-7.796239409393124209e-02
-7.885456931677381487e-02
-7.966513288758120259e-02
-8.039881827215500376e-02
-8.106022805343260362e-02
-8.165383393148861746e-02
-8.218397672353366934e-02
-8.265486636391511377e-02
-8.307058190411664711e-02
-8.343507151275891820e-02
-8.375215247559841814e-02
-8.402551119552881254e-02
-8.425870319257983132e-02
-8.445515310391793484e-02
-8.461815468384592531e-02
-8.475087080380339088e-02
-8.485633345236620606e-02
-8.493744373524692026e-02
-8.499697187529436926e-02
-8.503755721249411925e-02
-8.506170820396818932e-02
-8.507180242397505143e-02
-8.507008656390979695e-02
-8.505867643230402564e-02
-8.503955695482567911e-02
-8.501458217427942943e-02
-8.498231898757574454e-02
-8.493402892662943460e-02
-8.487096950833489251e-02
-8.479516832983380326e-02
-8.470854473239869398e-02
-8.461290980143310048e-02
-8.450996636647128968e-02
-8.440130900117864821e-02
-8.428842402335140482e-02
-8.417268949491668595e-02
-8.405537522193268218e-02
-8.393764275458831525e-02
-8.382054538720351555e-02
-8.370502815822911113e-02
-8.359192785024688321e-02
-8.348197298996945515e-02
-8.337578384824056998e-02
-8.327387244003453537e-02
-8.317664252445705619e-02
-8.308438960474429091e-02
-8.299730092826368422e-02
-8.291545548651324538e-02
-8.283882401512238092e-02
-8.276726899385083991e-02
-8.270054464658976867e-02
-8.263829694136110016e-02
-8.258006359031755395e-02
-8.252527404974296932e-02
-8.247324952005180565e-02
-8.242320294578986406e-02
-8.237423901563351025e-02
-8.232535416239011861e-02
-8.227543656299812769e-02
-8.222326613852681820e-02
-8.216751455417625749e-02
-8.210674521927763259e-02
-8.203941328729302818e-02
-8.196386565581520456e-02
-8.187834096656815275e-02
-8.178096960540670590e-02
-8.166977370231637279e-02
-8.154266713141400391e-02
-8.139745551094706988e-02
-8.123183620329399446e-02
-8.104339831496409907e-02
-8.082962269659788035e-02
-8.058788194296645502e-02
-8.031544039297205950e-02
-8.000945412964760584e-02
-7.966697098015729228e-02
-7.928493051579582618e-02
-7.886016405198931212e-02
-7.838939464829419723e-02
-7.786923710839843693e-02
-7.729619798012038467e-02
-7.670274977098395786e-02
-7.610690652209456397e-02
-7.547228015084417319e-02
-7.476434999939957082e-02
-7.395056787586246072e-02
-7.300035805426807745e-02
-7.188511727458674061e-02
-7.057821474272185647e-02
-6.905499213051236040e-02
-6.729276357572999689e-02
-6.527081568208215057e-02
-6.297040751920912616e-02
-6.037477062268686856e-02
-5.746910899402357664e-02
-5.424059910066431067e-02
-5.067838987598521916e-02
-4.677360271930003366e-02
-4.251933149585329641e-02
-3.791064253682724372e-02
-3.294457463933470054e-02
-2.762013906642662997e-02
-2.193831954708386212e-02
-1.590207227622625341e-02
-9.516325914702750133e-03
-2.787981589301991026e-03
4.274087107259016971e-03
1.165903411632296383e-02
1.935404091330450438e-02
2.734431650767760180e-02
3.561309744298901681e-02
4.414164779684387474e-02
5.290925918092048708e-02
6.189325074095547441e-02
7.106896915675914306e-02
8.040978864219922029e-02
8.988493772363082002e-02
9.943020018085929612e-02
1.089594788016955418e-01
1.183900895159254452e-01
1.276433628245073892e-01
1.366446437995562091e-01
1.453232920843596787e-01
1.536126818933623017e-01
1.614502020121807435e-01
1.687772557975890653e-01
1.755392611775327127e-01
1.816856506511156377e-01
1.871698712886119553e-01
1.919493847314556190e-01
1.959856671922493021e-01
1.992442094547567377e-01
2.016945168739094907e-01
2.033101093758011846e-01
2.040685214576917206e-01
2.039513021880050569e-01
2.029440152063294311e-01
2.010352424560996054e-01
1.982179156381492779e-01
1.945343089135447290e-01
1.900379736713674328e-01
1.847830380633400660e-01
1.788242070038186249e-01
1.722167621698015294e-01
1.650165620009192979e-01
1.572800416994462047e-01
1.490642132302870682e-01
1.404266653209921278e-01
1.314255634617409463e-01
1.221196499053590623e-01
1.125682436673011155e-01
1.028312405256677220e-01
9.296911302118876508e-02
8.304291045724015996e-02
7.311425889982670068e-02
6.324536117759965714e-02
5.349899688183890056e-02
4.393852236647066700e-02
3.462787074805040444e-02
2.558146084000029186e-02
1.679215711446585546e-02
8.308419771873798432e-03
1.718730560525405515e-04
-7.582960081934653207e-03
-1.492865798380332842e-02
-2.184490028403479611e-02
-2.831846790988873375e-02
-3.434324308139113935e-02
-3.992020931134571127e-02
-4.505745140532319004e-02
-4.977015546167123938e-02
-5.408060887150534235e-02
-5.801820031871623984e-02
-6.161941977996687747e-02
-6.492785852468951902e-02
-6.799420911509207466e-02
-7.087626540615166171e-02
-7.363892254562015571e-02
-7.635417697401924997e-02
-7.910112642464522947e-02
-8.196596992356397493e-02
-8.504200778961629181e-02
-8.842964163441219272e-02
-9.223637229720887953e-02
-9.647003634568418473e-02
-1.014091137606269455e-01
-1.074757676709572896e-01
-1.149682124195174904e-01
-1.240607135630604207e-01
-1.348035878722635417e-01
-1.471232033317125265e-01
-1.608219791399199960e-01
-1.755783857093043687e-01
-1.909469446662133973e-01
-2.063582288508986617e-01
-2.211188623175421031e-01
-2.344115203342296561e-01
-2.452949293829762567e-01
-2.527841449014858188e-01
-2.565736198495270903e-01
-2.550691719512359068e-01
-2.465384864274293986e-01
-2.295785042471958082e-01
-2.031154221278776706e-01
-1.664046925351031492e-01
-1.190310236827382684e-01
-6.090837953295258345e-02
7.720020203865363140e-03
8.628170006900459654e-02
1.738749288555531125e-01
2.692687196082595991e-01
3.709028296236874800e-01
4.768877604500471046e-01
5.851512948001185155e-01
6.921045365605774657e-01
7.921188202800025779e-01
8.803100926521861824e-01
9.526870035766054068e-01
1.006150906158271852e+00
1.038495856707853271e+00
1.048408614741585865e+00
1.035468642981325349e+00
1.000148107354533522e+00
9.438118769942548392e-01
8.687175242391750318e-01
7.778392260081038456e-01
6.744699306879594625e-01
5.629950036366186961e-01
4.474835859282768613e-01
3.315347876240456459e-01
2.182776877721533948e-01
1.103713344077427161e-01
1.000474455306887833e-02
-8.110309578268970476e-02
-1.617032316032537276e-01
-2.310167389254066950e-01
-2.887347247788480398e-01
-3.346503566464720247e-01
-3.672518408721616723e-01
-3.878637711014439327e-01
-3.982351402337729884e-01
-4.000000000000000222e-01
-3.946774609623518448e-01
-3.836716925144366686e-01
-3.682719228812512680e-01
-3.496524391191634940e-01
-3.288725871159379754e-01
-3.068767715907040894e-01
-2.844944560939923206e-01
-2.624401630076956815e-01
-2.413134735451083202e-01
-2.215990277508885775e-01
-2.036665245010940428e-01
-1.877707215031479415e-01
-1.740514352958706934e-01
-1.625335412494512133e-01
-1.531269735654730013e-01
-1.456267252768908005e-01
-1.397128482480500256e-01
-1.349504531746721359e-01
-1.308558504095916897e-01
-1.273254328381469014e-01
-1.242888793349671284e-01
-1.216607877101550939e-01
-1.193612953186887760e-01
-1.173160790604161341e-01
-1.154563553800601050e-01
-1.137188802672140508e-01
-1.120459492563458115e-01
-1.103853974267940408e-01
-1.086905994027716482e-01
-1.069204693533625239e-01
-1.050394609925247025e-01
-1.030175675790870327e-01
-1.008303219167528963e-01
-9.845879635409632291e-02
-9.588960278456576392e-02
-9.311489264648015185e-02
-9.013235692303350755e-02
-8.694522614228966662e-02
-8.356227037718783057e-02
-7.999779924553696020e-02
-7.627166191002154871e-02
-7.240723431735696103e-02
-6.837543266904277939e-02
-6.415016639676274224e-02
-5.972312044794059194e-02
-5.508696801488227601e-02
-5.023537053478327463e-02
-4.516297768972077353e-02
-3.986542740666215723e-02
-3.433934585745573864e-02
-2.858234745884058459e-02
-2.259303487243652375e-02
-1.637099900475419423e-02
-9.916819007184718426e-03
-3.232062276010527757e-03
3.680715547605961646e-03
1.081797057761063607e-02
1.817517068306800931e-02
2.574679548815728136e-02
3.352633637216667628e-02
4.150629646950543261e-02
4.967819066969036967e-02
5.803254561735904371e-02
6.655889971225681379e-02
7.524580310924988691e-02
8.408081771831155127e-02
9.305051720453727526e-02
1.021404869881284982e-01
1.113353242444089508e-01
1.206186379038086676e-01
1.299730486518801964e-01
1.393801889292816121e-01
1.488207029317941688e-01
1.582764126893780876e-01
1.677600961363355792e-01
1.772510289998582289e-01
1.867143787173877190e-01
1.961164894641415080e-01
2.054248821531304836e-01
2.146082544351413102e-01
2.236364806987531928e-01
2.324806120703217793e-01
2.411128764139957026e-01
2.495066783316991499e-01
2.576365991631494046e-01
2.654783969858401926e-01
2.730090066150570038e-01
2.802065396038629919e-01
2.870502842431124080e-01
2.935207055614372784e-01
2.995994453252603940e-01
3.052693220387833195e-01
3.105143309439972743e-01
3.153196440206731399e-01
3.196716099863705640e-01
3.235577542964296338e-01
3.269667791439787585e-01
3.298885634599272310e-01
3.323141629129717778e-01
3.342358099095912305e-01
3.356469135940507442e-01
3.365420598483983561e-01
3.369170112924677607e-01
3.367687072838765339e-01
3.360952639180264656e-01
3.348959740281047814e-01
3.331713071850815888e-01
3.309229096977133189e-01
3.281536046125390627e-01
3.248673917138841238e-01
3.210647428784328961e-01
3.167133037063044609e-01
3.118310670198289891e-01
3.064490083778168561e-01
3.005975204839432813e-01
2.943064131867585420e-01
2.876049134796779816e-01
2.805216655009920013e-01
2.730847305338556241e-01
2.653215870062995974e-01
2.572591304912187349e-01
2.489236737063843519e-01
2.403409465144306090e-01
2.315360959228693893e-01
2.225336860840745334e-01
2.133576982952980483e-01
2.040315309986535652e-01
1.945779997811337703e-01
1.850193373745920855e-01
1.753771936557606548e-01
1.656726356462335792e-01
1.559261475124829044e-01
1.461576305658424113e-01
1.363864032625246026e-01
1.266312012036032719e-01
1.169101771350308239e-01
1.072409009476206210e-01
9.764035967706585772e-02
8.812495750391974303e-02
7.871051575361504016e-02
6.941227289644574805e-02
6.024488454758414324e-02
5.122242346706418203e-02
4.235837955979832037e-02
3.366565987556080497e-02
2.515658860900366056e-02
1.684290709964164634e-02
8.735773831866411321e-03
8.457644349329496158e-04
-6.817128317027187911e-03
-1.424349450501893877e-02
-2.142450706517051717e-02
-2.835192178874684776e-02
-3.501807732213668700e-02
-4.141566346639025120e-02
-4.753135851973627757e-02
-5.336622889737452358e-02
-5.892829305612423685e-02
-6.422545949048014124e-02
-6.926552673260327753e-02
-7.405618335232994065e-02
-7.860500795716257594e-02
-8.291946919227893842e-02
-8.700692574052321104e-02
-9.087462632241438687e-02
-9.452970969613849750e-02
-9.797920465755577402e-02
-1.012300300401940412e-01
-1.042889947152547125e-01
-1.071627975916074615e-01
-1.098580276157950508e-01
-1.123811637720287804e-01
-1.147385750821927064e-01
-1.169365206058399220e-01
-1.189811494401958880e-01
-1.208785007201552686e-01
-1.226345036182849846e-01
-1.242549773448211603e-01
-1.257456311476723432e-01
-1.271120643124163396e-01
-1.283597661623028241e-01
-1.294941160582513962e-01
-1.305203833988533568e-01
-1.314437276203696547e-01
-1.322691981967327179e-01
-1.330017346395459543e-01
-1.336461664980826414e-01
-1.342072133592877581e-01
-1.346894848477763751e-01
-1.350974806258346539e-01
-1.354355903934195138e-01
-1.357080938881583543e-01
-1.359191608853497213e-01
-1.360728511979627520e-01
-1.361731146766371747e-01
-1.362237912096838088e-01
-1.362286107230840093e-01
-1.361911931804898890e-01
-1.361150485832244850e-01
-1.360035769702814812e-01
-1.358600684183252638e-01
-1.356877030416910879e-01
-1.354895509923849106e-01
-1.352685724600836137e-01
-1.350276176721345034e-01
-1.347694268935559214e-01
-1.344966304270369672e-01
-1.342117486129372761e-01
-1.339171918292876295e-01
-1.336152604917890674e-01
-1.333051400942382725e-01
-1.329795872189466488e-01
-1.326396779473865695e-01
-1.322870447064161681e-01
-1.319232410351925955e-01
-1.315497415851716312e-01
-1.311679421201080720e-01
-1.307791595160553988e-01
-1.303846317613660544e-01
-1.299855179566912211e-01
-1.295828983149811542e-01
-1.291777741614845154e-01
-1.287710679337492614e-01
-1.283636231816218110e-01
-1.279562045672477666e-01
-1.275494978650711930e-01
-1.271441099618354498e-01
-1.267405688565821364e-01
-1.263393236606523695e-01
-1.259407445976854500e-01
-1.255451230036201404e-01
-1.251526713266934432e-01
-1.247635231274417666e-01
-1.243777330786998148e-01
-1.239952769656016418e-01
-1.236160516855796532e-01
-1.232398752483654936e-01
-1.228664867759893253e-01
-1.224955465027804391e-01
-1.221266357753667542e-01
-1.217592570526752072e-01
-1.213928339059313077e-01
-1.210267110186596939e-01
-1.206601541866836325e-01
-1.202923503181254072e-01
-1.199224074334058199e-01
-1.195493546652450223e-01
-1.191721422586614065e-01
-1.187896415709728259e-01
-1.184006450717953185e-01
-1.180038663430443835e-01
-1.175979400789338158e-01
-1.171814220859767608e-01
-1.167527892829847147e-01
-1.163104397010683577e-01
-1.158526924836369987e-01
-1.153777878863990192e-01
-1.148838872773613184e-01
-1.143690731368299796e-01
-1.138313490574095477e-01
-1.132686397440039183e-01
-1.126787910138150606e-01
-1.120595697963447379e-01
-1.114086641333926209e-01
-1.107236831790580633e-01
-1.100021571997385483e-01
-1.092425032559283804e-01
-1.084641364945799213e-01
-1.076586751177704415e-01
-1.068040629106373762e-01
-1.058790254260972286e-01
-1.048630699848481784e-01
-1.037364856753668629e-01
-1.024803433539102637e-01
-1.010764956445146523e-01
-9.950757693899814349e-02
-9.775700339695708729e-02
-9.580897294576812273e-02
-9.364846528058690112e-02
-9.126124186435197183e-02
-8.863384592777912019e-02
-8.575360246936464259e-02
-8.260861825538362568e-02
-7.918778181989516440e-02
-7.548076346473420184e-02
-7.147801525951708035e-02
-6.717077104163782231e-02
-6.255104641627640127e-02
-5.761163875638697363e-02
-5.234612720270559461e-02
-4.674887266374555539e-02
-4.081501781580765265e-02
-3.454048710296531155e-02
-2.792198673707413370e-02
-2.095700469776662356e-02
-1.364381073246456744e-02
-5.981456356360381754e-03
2.030225147570396960e-03
1.039061872857627300e-02
1.911775059610587579e-02
2.827034971349334791e-02
3.777487063967133185e-02
4.754487338050317202e-02
5.749725710852143790e-02
6.755226016295334812e-02
7.763346004970439473e-02
8.766777344136605921e-02
9.758545617719877052e-02
1.073201032631584395e-01
1.168086488718781402e-01
1.259913663426776020e-01
1.348118681815458908e-01
1.432171060611666658e-01
1.511573708209014155e-01
1.585862924667936769e-01
1.654608401715720323e-01
1.717413222746381196e-01
1.773913862820843956e-01
1.823780188666829227e-01
1.866715458678890327e-01
1.902456322918345544e-01
1.930772823113395820e-01
1.951468392659035933e-01
1.964379856617094466e-01
1.969377431716194948e-01
1.966364726351803593e-01
1.955278740586204878e-01
1.936089866148484884e-01
1.908801886434582373e-01
1.873451976507232164e-01
1.830110703095995106e-01
1.778882024597226996e-01
1.719858044786047868e-01
1.653570062858904510e-01
1.580904774008285996e-01
1.502714677749417138e-01
1.419815329507727597e-01
1.332985340618645376e-01
1.242966378327727828e-01
1.150463165790597264e-01
1.056143482073097495e-01
9.606381621510506896e-02
8.645410969104172505e-02
7.684092331472186510e-02
6.727625735677034147e-02
5.780841767880939841e-02
4.848201573347521443e-02
3.933796856441029721e-02
3.041349880627935987e-02
2.174213468474484046e-02
1.335371001648316680e-02
5.274364209177651031e-03
-2.473457738468021194e-03
-9.871005236750829415e-03
-1.690322210495398547e-02
-2.355874657135348382e-02
-2.982991127320677727e-02
-3.571274325676992989e-02
-4.120696397728595972e-02
-4.631598929899022332e-02
-5.104692949510114541e-02
-5.541058924783409667e-02
-5.942146764839201234e-02
-6.309775819696927801e-02
-6.645490378654078656e-02
-6.944441976343102008e-02
-7.212402313008431376e-02
-7.458982455553991864e-02
-7.694109521775432947e-02
-7.928026680360816814e-02
-8.171293150890146517e-02
-8.434784203835626881e-02
-8.729691160561159347e-02
-9.067521393323063617e-02
-9.460098325269611363e-02
-9.919561430441337091e-02
-1.045836623377026653e-01
-1.108928431108104351e-01
-1.182540328909018612e-01
-1.268012684540671953e-01
-1.366717470853053285e-01
-1.480058265785471616e-01
-1.609547179278811579e-01
-1.755775166830958745e-01
-1.911690173966375250e-01
-2.068533605457423541e-01
-2.217555188511394493e-01
-2.350012972770619268e-01
-2.457173330312245052e-01
-2.530310955648590321e-01
-2.560708865726898376e-01
-2.539658399929377586e-01
-2.458459220073268003e-01
-2.308419310410779191e-01
-2.080854977629109370e-01
-1.767090850850285277e-01
-1.358459881631755017e-01
-8.463033439655631707e-02
-2.184495163147498475e-02
5.266413652141066493e-02
1.372492296511567123e-01
2.300600039799611807e-01
3.290680196546447167e-01
4.320667207467290272e-01
5.366714352522516940e-01
6.403193750920398442e-01
7.402696361115325141e-01
8.336031980808592534e-01
9.172229246946829173e-01
9.878535635724453590e-01
1.042041746258201229e+00
1.076155988220668824e+00
1.086386688853177240e+00
1.069976750057894499e+00
1.029360261220386263e+00
9.682638676329961003e-01
8.902762891644203647e-01
7.988487325193976973e-01
6.972948912388131637e-01
5.887909456996254232e-01
4.763755631150610181e-01
3.629498975343261602e-01
2.512775898427950239e-01
1.439847677619194855e-01
4.356004584941469693e-02
-4.764547450102585291e-02
-1.274422964180583762e-01
-1.949641178490375826e-01
-2.506252658873969197e-01
-2.948874508740595424e-01
-3.283005417285180250e-01
-3.515025659488746346e-01
-3.652197096118051101e-01
-3.702663173726197798e-01
-3.675448924652184313e-01
-3.580460967020965279e-01
-3.428487504743662484e-01
-3.231198327517298408e-01
-3.001144810824937226e-01
-2.751759915935554357e-01
-2.497358189904477777e-01
-2.253104692240768814e-01
-2.028476551623368540e-01
-1.824023102071243851e-01
-1.640218531970124016e-01
-1.477192823823360035e-01
-1.334731754251433089e-01
-1.212276893992293991e-01
-1.108925607901232180e-01
-1.023431054951050578e-01
-9.542021882317958115e-02
-8.993037549509402817e-02
-8.564562964333255479e-02
-8.230361481212267183e-02
-7.960754395742414280e-02
-7.722620944693708855e-02
-7.493686719556791331e-02
-7.277412884524886438e-02
-7.069728594904556296e-02
-6.866727626291191378e-02
-6.664822523845703728e-02
-6.460744602294948846e-02
-6.251543945931109514e-02
-6.034589408612117678e-02
-5.807568613761432408e-02
-5.568487954368450676e-02
-5.315672592987907841e-02
-5.047766461740288424e-02
-4.763732262311548560e-02
-4.462851465953693308e-02
-4.144724313483999500e-02
-3.809269815285459826e-02
-3.456725751306577443e-02
-3.087645097594632349e-02
-2.701825600354579304e-02
-2.298030661850414269e-02
-1.875313024944824658e-02
-1.432819647943933683e-02
-9.697917045961235161e-03
-4.855645840928957124e-03
2.043210893167834996e-04
5.486745543999582697e-03
1.099544716792094645e-02
1.673330345145185305e-02
2.270224973053730499e-02
2.890327918668550433e-02
3.533644284698395088e-02
4.200084958408911717e-02
4.889466611623177750e-02
5.601511700720490650e-02
6.335848466638194232e-02
7.092010934870468519e-02
7.869438915468990325e-02
8.667478003041523271e-02
9.485379576753993902e-02
1.032230080032915387e-01
1.117730462204723496e-01
1.204935977474448361e-01
1.293734077581543129e-01
1.384002792721136244e-01
1.475610731544108045e-01
1.568417081156934234e-01
1.662271607121924566e-01
1.757014653457060760e-01
1.852477142636083096e-01
1.948480575588316110e-01
2.044883510480561828e-01
2.141790227120414780e-01
2.238941344962213087e-01
2.336007221606791751e-01
2.432668192070640556e-01
2.528614568785731986e-01
2.623546641599608931e-01
2.717174677775208158e-01
2.809218921991125661e-01
2.899409596341434581e-01
2.987486900335776241e-01
3.073201010899196950e-01
3.156312082372393357e-01
3.236590246511541480e-01
3.313815612488379969e-01
3.387778266890069112e-01
3.458278273719401774e-01
3.525125674394657960e-01
3.588140487749673646e-01
3.647152710033723100e-01
3.702002314911695402e-01
3.752539253463975655e-01
3.798623454186490500e-01
3.840124822990639286e-01
3.876923243203400649e-01
3.908908575567262567e-01
3.935980658240251229e-01
3.958049306795879962e-01
3.975034314223226950e-01
3.986865450926878607e-01
3.993482464726958447e-01
3.994835080859098220e-01
3.990883001974467881e-01
3.981595908139762274e-01
3.966953456837195580e-01
3.946945282964520185e-01
3.921282184430496809e-01
3.889470104666169492e-01
3.851811214792874027e-01
3.808631644347574285e-01
3.760251097346372084e-01
3.706982852284602670e-01
3.649133762136779202e-01
3.587004254356692678e-01
3.520888330877273154e-01
3.451073568110673007e-01
3.377841116948219202e-01
3.301465702760548737e-01
3.222215625397398808e-01
3.140352759187751142e-01
3.056132552939752056e-01
2.969804029940865675e-01
2.881609787957655211e-01
2.791785999235919524e-01
2.700562410500629840e-01
2.608162342956081847e-01
2.514802692285653674e-01
2.420693928651971305e-01
2.326040096696827542e-01
2.231038815541341869e-01
2.135881278785718429e-01
2.040752254509403674e-01
1.945830085271016419e-01
1.851286688108496614e-01
1.757287554538876639e-01
1.663991750558423410e-01
1.571551916642619506e-01
1.480114267746107659e-01
1.389818593302865057e-01
1.300798257225943555e-01
1.213180197907646196e-01
1.127084928219445059e-01
1.042626535512132246e-01
9.599126816155856279e-02
8.790446028389359290e-02
8.001171099704801337e-02
7.232185882778252584e-02
6.484309975076818500e-02
5.758298718859977683e-02
5.054843201179004542e-02
4.374570253878123927e-02
3.718042453592695917e-02
3.085758121750464822e-02
2.478151324570948555e-02
1.895591873066559963e-02
1.338385323040947039e-02
8.067729750900365371e-03
3.009318746016731438e-03
-1.788794400096882509e-03
-6.325588669192749869e-03
-1.060952109607332661e-02
-1.464945593433991666e-02
-1.845409517320456549e-02
-2.203197853750077373e-02
-2.539148348767633623e-02
-2.854082521979617315e-02
-3.148805666553744498e-02
-3.424106849219732407e-02
-3.680758910268766559e-02
-3.919518463553750554e-02
-4.141125896488845326e-02
-4.346305370050174144e-02
-4.535764818775339657e-02
-4.710195950763618189e-02
-4.870274247675654422e-02
-5.016658964733949899e-02
-5.149993130722529955e-02
-5.270903547987049187e-02
-5.380000792434641577e-02
-5.477879213534175840e-02
-5.565116934316088892e-02
-5.642275851372463569e-02
-5.709901634856850983e-02
-5.768523728484548085e-02
-5.818655349532397825e-02
-5.860793488838855758e-02
-5.895418910803962298e-02
-5.922996153389370466e-02
-5.943973528118362548e-02
-5.958783120075811235e-02
-5.967840787908168521e-02
-5.971546163823510112e-02
-5.970282653591529876e-02
-5.964417436543495432e-02
-5.954301465572292562e-02
-5.940269467132430758e-02
-5.922639941239993266e-02
-5.901715161472653737e-02
-5.877781174969759492e-02
-5.851107802432187199e-02
-5.821948638122448338e-02
-5.790541049864644796e-02
-5.757106179044524374e-02
-5.721848940609403078e-02
-5.684958023068181765e-02
-5.646605888491385006e-02
-5.606948772511183288e-02
-5.566126684321293094e-02
-5.524263406677054622e-02
-5.481466495895387370e-02
-5.437827281854878958e-02
-5.393420867995674106e-02
-5.348306131319519041e-02
-5.302525722389744844e-02
-5.256106065331367372e-02
-5.209057357830937374e-02
-5.161373571136612659e-02
-5.112967185643635393e-02
-5.063623043433373994e-02
-5.013468101093421225e-02
-4.962653700167141135e-02
-4.911321207183338977e-02
-4.859602013656333375e-02
-4.807617536085834198e-02
-4.755479215957020278e-02
-4.703288519740489448e-02
-4.651136938892364014e-02
-4.599105989854163079e-02
-4.547267214052852502e-02
-4.495682177900839349e-02
-4.444402472796060710e-02
-4.393469715121817165e-02
-4.342915546246894909e-02
-4.292761632525493587e-02
-4.243019665297359522e-02
-4.193691360887585873e-02
-4.144768460606768068e-02
-4.096232730750914985e-02
-4.048055962601554425e-02
-4.000199972425599881e-02
-3.952616601475439362e-02
-3.905247715988896529e-02
-3.858025207189291761e-02
-3.810870991285347786e-02
-3.763697009471245192e-02
-3.716405227926605770e-02
-3.668887637816570235e-02
-3.621026255291642792e-02
-3.572693121487835466e-02
-3.523750302526557077e-02
-3.474049889514735368e-02
-3.423433998544694878e-02
-3.371734770694251315e-02
-3.318774372026594977e-02
-3.264364993590479491e-02
-3.208308851420033081e-02
-3.150398186534852929e-02
-3.090415264939938567e-02
-3.028132377625863958e-02
-2.963311840568538802e-02
-2.895705994729363963e-02
-2.825057206055192616e-02
-2.751097865478280280e-02
-2.673550388916456910e-02
-2.592127217272877093e-02
-2.507221371815410160e-02
-2.419268666071316964e-02
-2.326482425495723927e-02
-2.227047886401040122e-02
-2.119196807809331506e-02
-2.001207471452226550e-02
-1.871404681771149381e-02
-1.728159765916975621e-02
-1.569890573750254426e-02
-1.395061477841086361e-02
-1.202183373469423167e-02
-9.898136786246070074e-03
-7.565563340056702391e-03
-5.010618030211688723e-03
-2.220270717895989065e-03
8.180435086124204780e-04
4.116424333938106805e-03
7.686506215611343951e-03
1.153945838406134072e-02
1.568598484262562209e-02
2.013632436754414501e-02
2.490025050796274009e-02
2.998707158592450739e-02
3.540563069638275051e-02
4.116430570719259441e-02
4.727100925911559282e-02
5.373318876580884806e-02
6.055782641384127585e-02
6.775143916268316913e-02
7.532007874471191577e-02
8.327522481550986289e-02
9.166673131377278683e-02
1.004533566056495797e-01
1.095716619969971939e-01
1.189594275775702759e-01
1.285556522210455910e-01
1.383005535850057033e-01
1.481355681109481903e-01
1.580033510242669914e-01
1.678477763342793860e-01
1.776139368342083413e-01
1.872481441011910608e-01
1.966979284962618868e-01
2.059120391643782799e-01
2.148404440344031663e-01
2.234343298191135974e-01
2.316461020151846517e-01
2.394293849032137489e-01
2.467390215477037740e-01
2.535310737970710715e-01
2.597628222836327883e-01
2.653927664236251927e-01
2.703806244171915729e-01
2.746873332483871222e-01
2.782750486851714999e-01
2.811071452794197123e-01
2.831482163669155616e-01
2.843640740673527567e-01
2.847217492843335807e-01
2.841894917053724434e-01
2.827367698018926623e-01
2.803090160704533318e-01
2.769185479729041610e-01
2.726479887397316171e-01
2.675774903539320793e-01
2.617846115600768186e-01
2.553443178643226563e-01
2.483289815343964202e-01
2.408083815996048260e-01
2.328497038508285932e-01
2.245175408405369888e-01
2.158738918827660669e-01
2.069781630531327687e-01
1.978871671888279282e-01
1.886551238886319259e-01
1.793336595128907085e-01
1.699718071835316646e-01
1.606160067840558536e-01
1.513101049595544367e-01
1.420953551166830309e-01
1.330104174236800274e-01
1.240913588103567111e-01
1.153716529681139136e-01
1.068821803499184764e-01
9.865122817031873881e-02
9.070449040543676622e-02
8.306506779298306054e-02
7.575346783223513292e-02
6.878760478405154810e-02
6.218279967086559612e-02
5.595178027669678311e-02
5.010468114713351184e-02
4.464904358934479456e-02
3.958981567207486840e-02
3.492935222565252129e-02
3.076242009810375988e-02
2.769364710347482772e-02
2.555152969313068123e-02
2.402036393993389751e-02
2.281197761774927946e-02
2.166573020144801909e-02
2.034851286690536609e-02
1.865474849100368093e-02
1.640639165162860458e-02
1.345292862767138997e-02
9.671377399026459543e-03
4.966287646598621652e-03
-7.302592477072544774e-04
-7.458650200979799472e-03
-1.523174042930591776e-02
-2.403485344775713184e-02
-3.382578107041012139e-02
-4.453478341033295651e-02
-5.606458887959442361e-02
-6.829039418924209848e-02
-8.105986434933415419e-02
-9.419313266891859993e-02
-1.074828007560443277e-01
-1.206939385177373536e-01
-1.335640841600365114e-01
-1.458032441879695273e-01
-1.570938934055638447e-01
-1.670910655256911681e-01
-1.750362857015143048e-01
-1.791371564021339569e-01
-1.776584270520503994e-01
-1.691373761212545401e-01
-1.523838111252465710e-01
-1.264800686250138195e-01
-9.078101422704215606e-02
-4.491404258329112498e-02
1.122092260871965230e-02
7.745142860603365653e-02
1.533324936201788669e-01
2.381466068172269912e-01
3.309037283176379241e-01
4.303412891964869535e-01
5.349241914833166023e-01
6.429323378176777792e-01
7.519634783030210157e-01
8.567036027806332887e-01
9.521026376299152050e-01
1.033920152705241957e+00
1.098725361335820772e+00
1.143897120325914951e+00
1.167623929954687334e+00
1.168903933976237486e+00
1.147544919619608805e+00
1.104164317588792965e+00
1.040189202062714813e+00
9.578483739200646108e-01
8.603989296942827769e-01
7.524885055996387573e-01
6.385661082563928170e-01
5.225863999774855717e-01
4.080096987687440446e-01
2.978019783285714706e-01
1.944348680481524649e-01
9.988565301136437258e-02
1.563727399493936021e-02
-5.732167253178804822e-02
-1.184969344067070551e-01
-1.678729407662712669e-01
-2.044367777979806400e-01
-2.286712907669469219e-01
-2.422866472717852826e-01
-2.468875444346966819e-01
-2.439732089014637895e-01
-2.349373968414623925e-01
-2.210683939476497661e-01
-2.035490154365603710e-01
-1.834566060483385219e-01
-1.617630400466910923e-01
-1.393347212189175455e-01
-1.169325828758930319e-01
-9.521208785210832914e-02
-7.472322850560941809e-02
-5.591052671803792284e-02
-3.911303389461401325e-02
-2.456433096416521522e-02
-1.239252837908205729e-02
-2.612043647190642748e-03
5.258347300550081371e-03
1.165759051820974834e-02
1.682374851975038110e-02
2.097632733972848440e-02
2.431627653329970773e-02
2.702598917621373831e-02
2.926930186482251672e-02
3.119149471607451929e-02
3.291929136751720053e-02
3.456085897729355150e-02
3.620580822414698474e-02
3.792519330741811467e-02
3.977151194704653392e-02
4.177870538356726060e-02
4.396215837811601190e-02
4.631869921242542931e-02
4.882659968882741008e-02
5.144557513024877737e-02
5.412513182868011752e-02
5.692571021538694875e-02
5.988327519729752524e-02
6.300619055868661444e-02
6.630231594883573276e-02
6.977900688202753887e-02
7.344311473754916442e-02
7.730098675968499755e-02
8.135846605772723006e-02
8.562089160596875193e-02
9.009309824370714814e-02
9.477941667523664959e-02
9.968367346985979038e-02
1.048091910618800249e-01
1.101587877506052804e-01
1.157347777003393530e-01
1.215389709403955631e-01
1.275726733650874856e-01
1.338366867337338340e-01
1.403313086706479140e-01
1.470563326651533886e-01
1.540110480715743968e-01
1.612000051350003238e-01
1.686324263671116208e-01
1.762978360326330485e-01
1.841842692470928577e-01
1.922792451112348422e-01
2.005697667110042381e-01
2.090423211175680418e-01
2.176828793873024637e-01
2.264768965617988128e-01
2.354093116678487307e-01
2.444645477174671733e-01
2.536265117078773113e-01
2.628785946215181912e-01
2.722036714260285262e-01
2.815841010742704542e-01
2.910017265043147727e-01
3.004378746394479327e-01
3.098733563881552744e-01
3.192884666441471175e-01
3.286629842863412199e-01
3.379761721788708817e-01
3.472067771710696249e-01
3.563330300974943965e-01
3.653326457779106917e-01
3.741828230172988823e-01
3.828602446058400055e-01
3.913410773189385239e-01
3.996009719172064489e-01
4.076150631464720009e-01
4.153579697377637325e-01
4.228037944073330667e-01
4.299261238566399745e-01
4.366980287723558618e-01
4.430920638263666778e-01
4.490802676757618128e-01
4.546341629628514180e-01
4.597247563151540817e-01
4.643282812981534002e-01
4.684407333334124068e-01
4.720522245406796324e-01
4.751533950882828039e-01
4.777362732837985293e-01
4.797942755740494114e-01
4.813222065451105980e-01
4.823162589223042307e-01
4.827740135702011104e-01
4.826944394926213633e-01
4.820778938326336638e-01
4.809261218725552345e-01
4.792422570339514021e-01
4.770308208776387060e-01
4.742977231036800134e-01
4.710502615513878499e-01
4.672971221993217350e-01
4.630483791652947323e-01
4.583154947063641238e-01
4.531113192188372940e-01
4.474500912382679552e-01
4.413474374394661393e-01
4.348203726364832100e-01
4.278872997826215219e-01
4.205680099704290908e-01
4.128836824317125842e-01
4.048568845375176695e-01
3.965115717981418930e-01
3.878730878631272416e-01
3.789681645212771288e-01
3.698249217006311929e-01
3.604728674684822831e-01
3.509428980313673563e-01
3.412672977350851289e-01
3.314797390646703201e-01
3.216152826444104162e-01
3.117103772378375659e-01
3.017923419960356624e-01
2.918583633867023464e-01
2.819294569658445937e-01
2.720280923301259257e-01
2.621757148619806577e-01
2.523927457295884746e-01
2.426985818868915290e-01
2.331115960735857806e-01
2.236491368151385384e-01
2.143275284227618149e-01
2.051620709934302011e-01
1.961670404098727616e-01
1.873556883405883555e-01
1.787402422398221002e-01
1.703319053475812472e-01
1.621408566896277437e-01
1.541762510774922212e-01
1.464462191084526799e-01
1.389578671655489206e-01
1.317172774175758843e-01
1.247295078190958639e-01
1.179985921104201863e-01
1.115275398176208688e-01
1.053183362525258460e-01
9.937194251272929435e-02
9.368829548157514564e-02
8.826630782816835552e-02
8.310386800736963009e-02
7.819784025980508479e-02
7.354406461185136745e-02
6.913735687564603882e-02
6.497150864908313173e-02
6.103928731581986789e-02
5.733243604526644388e-02
5.384167379259263697e-02
5.055669529872547363e-02
4.746617109035400350e-02
4.455774747992136131e-02
4.182762554112595677e-02
3.928342672140411329e-02
3.691719032179691107e-02
3.472071538087040388e-02
3.268600647330632825e-02
3.080527370989999403e-02
2.907093273756417018e-02
2.747560473932303404e-02
2.601211643431677878e-02
2.467350007779922638e-02
2.345299346114049222e-02
2.234403991182365434e-02
2.134028829344686295e-02
2.043559300572234116e-02
1.962401398447821688e-02
1.889981670165580274e-02
1.825747216531142803e-02
1.769165691961582798e-02
1.719725304485486550e-02
1.676934815742847640e-02
1.640323540985100248e-02
1.609441349075135808e-02
1.583858662487369617e-02
1.563166457307607615e-02
1.546976263233107440e-02
1.534920163572617291e-02
1.526650795246320413e-02
1.521841348785862857e-02
1.520185568334336823e-02
1.521397751646291763e-02
1.525212750087745484e-02
1.531385968636150841e-02
1.539693365880434595e-02
1.549931454020975208e-02
1.561917298869586190e-02
1.575488519849566060e-02
1.590503289995642833e-02
1.606840335954018428e-02
1.624398937982346469e-02
1.643098929949721176e-02
1.662880699336721779e-02
1.683705187235345901e-02
1.705653961718267553e-02
1.728864908638272357e-02
1.753174798678314161e-02
1.778418155910449494e-02
1.804438668892061060e-02
1.831089190665879940e-02
1.858231738759991147e-02
1.885737495187816970e-02
1.913486806448133626e-02
1.941369183525043507e-02
1.969283301887997384e-02
1.997137001491799957e-02
2.024847286776609856e-02
2.052340326667873027e-02
2.079551454576450409e-02
2.106425168398495806e-02
2.132915130515561364e-02
2.158984167794464337e-02
2.184604271587431423e-02
2.209756597732009942e-02
2.234431466551095591e-02
2.258628362852910243e-02
2.282355935931040802e-02
2.305631999564428103e-02
2.328483532017316948e-02
2.350946676039311622e-02
2.373066738865392544e-02
2.394898192215827448e-02
2.416504672296293510e-02
2.437958979797749670e-02
2.459343079896536555e-02
2.480748102254315413e-02
2.502274341018129178e-02
2.524031254820313652e-02
2.546137466778575220e-02
2.568720764495979747e-02
2.591918100060908170e-02
2.615875590047084254e-02
2.640748515513607897e-02
2.666701322004877417e-02
2.693907619550706123e-02
2.722550182666144680e-02
2.752820950351692053e-02
2.784921026093123420e-02
2.819060677861601194e-02
2.855459338113580658e-02
2.894345603790909882e-02
2.935957236320763108e-02
2.980541161615668511e-02
3.028353470073458231e-02
3.079659416577351649e-02
3.134733420495877665e-02
3.193639059280817261e-02
3.254332959916139689e-02
3.318112361637870489e-02
3.387284556328007401e-02
3.464071671926927110e-02
3.550610672433307524e-02
3.648953357904294315e-02
3.761066364455356581e-02
3.888831164260420081e-02
4.034044065551595226e-02
4.198416212619543453e-02
4.383573585813227425e-02
4.591057001540094218e-02
4.822322112265697847e-02
5.078739406514198862e-02
5.361594208868081246e-02
5.672086679968318945e-02
6.011331816513859616e-02
6.380359451262418435e-02
6.780114253029961846e-02
7.211455726691007317e-02
7.675158213177901700e-02
8.171910889481898144e-02
8.702317768652467755e-02
9.266897699797677079e-02
9.866084368083233302e-02
1.050022629473396085e-01
1.116958683703278554e-01
1.187434418832137295e-01
1.261459137799879615e-01
1.339033627152341754e-01
1.420150157041166761e-01
1.504910553658083128e-01
1.593977230082981311e-01
1.686690872705676192e-01
1.782148219908471498e-01
1.879481530531433853e-01
1.977858583872221798e-01
2.076482679686340038e-01
2.174592638186972904e-01
2.271462800045068731e-01
2.366403026389158892e-01
2.458758698805634246e-01
2.547910719338558616e-01
2.633275510489745397e-01
2.714305015218629880e-01
2.790486696942465761e-01
2.861343539536199687e-01
2.926434047332521216e-01
2.985352245121754011e-01
3.037727678152029043e-01
3.083225412129168008e-01
3.121546033216731075e-01
3.152425648035943606e-01
3.175635883665804959e-01
3.190983887643018546e-01
3.198312327962006263e-01
3.197499393074901830e-01
3.188458791891570776e-01
3.171139753779594894e-01
3.145527028564263361e-01
3.111640886528617145e-01
3.069537118413386834e-01
3.019307035417035934e-01
2.961074573366379026e-01
2.895267445991176469e-01
2.822753884594650930e-01
2.744399197968822035e-01
2.661032297439394068e-01
2.573445696865900301e-01
2.482395512641477620e-01
2.388601463693021953e-01
2.292746871481101678e-01
2.195478660000133031e-01
2.097407355778122540e-01
1.999107087876835775e-01
1.901115587891714087e-01
1.803934189952046685e-01
1.708027830720710849e-01
1.613825049394344013e-01
1.521717987703303798e-01
1.432062389911624711e-01
1.345177602817180240e-01
1.261346575751439714e-01
1.180815860579631504e-01
1.103795611700668644e-01
1.030459586047287601e-01
9.609451430858317877e-02
8.953532448164058799e-02
8.337484557727997680e-02
7.761589430226073505e-02
7.225764761670522285e-02
6.736415851014398992e-02
6.363435334236905438e-02
6.097006189750492355e-02
5.903654375061806459e-02
5.752768405081731817e-02
5.616599352125084543e-02
5.470260845910923653e-02
5.291729073562106977e-02
5.061842779605590925e-02
4.764303265972241741e-02
4.385674391997301802e-02
3.915382574419701278e-02
3.345716787382491120e-02
2.671828562432432275e-02
1.891731988521216934e-02
1.006303712003692175e-02
1.928293663900904065e-04
-1.062728576410154613e-02
-2.230266508575667883e-02
-3.471003983886739030e-02
-4.769751568968161326e-02
-6.108457273041245639e-02
-7.466206547921533376e-02
-8.819222288022293688e-02
-1.014086483035219755e-01
-1.140163195451642797e-01
-1.256915888271447068e-01
-1.360821827974352249e-01
-1.448093452701676442e-01
-1.510938416878723489e-01
-1.529758220383977130e-01
-1.485569614598566957e-01
-1.362729805243851899e-01
-1.148936452381336126e-01
-8.352276704130945362e-02
-4.159820280812032145e-02
1.110814515319213935e-02
7.449032910039077304e-02
1.481083558571246739e-01
2.311881868130990503e-01
3.226217379239663119e-01
4.209668797113986782e-01
5.244474372629073233e-01
6.309531902321091623e-01
7.380900795934030034e-01
8.426929638396415401e-01
9.393181488717005090e-01
1.023009536507629047e+00
1.089770603538640081e+00
1.136564401729172502e+00
1.161313557816817443e+00
1.162900273512445626e+00
1.141166325500113210e+00
1.096913065437061352e+00
1.031901419953807242e+00
9.488518906540249764e-01
8.514445541146135055e-01
7.438336831509836378e-01
6.299266809271507617e-01
5.137319861310563063e-01
3.987750974636675716e-01
2.880897979570126166e-01
1.842181549743761027e-01
8.921052021000180909e-02
4.625529689292751101e-03
-6.846989623126836788e-02
-1.295005528639955328e-01
-1.783829511901934561e-01
-2.155253178600237129e-01
-2.416315408755976557e-01
-2.563302648969946196e-01
-2.610408947092785481e-01
-2.575466525049652233e-01
-2.474913253276522507e-01
-2.323792650720397091e-01
-2.135753884839026451e-01
-1.923051771601066162e-01
-1.696546775485946457e-01
-1.465705009484276622e-01
-1.238598235097240763e-01
-1.021903862336992486e-01
-8.209049497264797601e-02
-6.394902042997835379e-02
-4.801539816015948370e-02
-3.439962856875677932e-02
-2.307227691241814371e-02
-1.386447029118481611e-02
-6.308835580359828388e-03
-1.010571885728950292e-05
5.194684748854649925e-03
9.459259589671087376e-03
1.292810088186391315e-02
1.573644901507187388e-02
1.801030269030445830e-02
1.986641891993817799e-02
2.141231302772167444e-02
2.274625864877283243e-02
2.395728772957916863e-02
2.512519052799661035e-02
2.632051561325204903e-02
2.760456986594195250e-02
2.902941847803258701e-02
3.063788495285829638e-02
3.246355110512488817e-02
3.453075706090708019e-02
3.685460125765055439e-02
3.944094044416734945e-02
4.228638968064207804e-02
4.537832233862837406e-02
4.869487010105072455e-02
5.220492296219902961e-02
5.586812922773731760e-02
5.963489551469725036e-02
6.349539400390019628e-02
6.754921487931397905e-02
7.181008849857967169e-02
7.628506549957497773e-02
8.098020234162073283e-02
8.590056130548356927e-02
9.105021049336686767e-02
9.643222382892396860e-02
1.020486810572495129e-01
1.079006677448840490e-01
1.139882752798041521e-01
1.203106008714369679e-01
1.268657475506509424e-01
1.336508241697607069e-01
1.406619454025154203e-01
1.478942317441166443e-01
1.553418095112062414e-01
1.629978108418732585e-01
1.708543736956394943e-01
1.789026418534807039e-01
1.871327649178124997e-01
1.955338983124977892e-01
2.040942032828313435e-01
2.128008468955630006e-01
2.216400020388820113e-01
2.305968474224252551e-01
2.396743449082502364e-01
2.488811316907635351e-01
2.581844833321581545e-01
2.675516158727148097e-01
2.769505582397383536e-01
2.863501522475824235e-01
2.957200525976328986e-01
3.050307268783164494e-01
3.142534555650838834e-01
3.233603320204346820e-01
3.323242624939004575e-01
3.411189661220537239e-01
3.497189749284913551e-01
3.580996338238588983e-01
3.662371006058336986e-01
3.741083459591336702e-01
3.816911534555021968e-01
3.889641195537304474e-01
3.959066535996418335e-01
4.024989778260993356e-01
4.087221273529938470e-01
4.145579501872610484e-01
4.199891072228708611e-01
4.249990722408311106e-01
4.295721319091798662e-01
4.336933857829986527e-01
4.373487463044026802e-01
4.405249388025449520e-01
4.432095014936111577e-01
4.453907854808277778e-01
4.470579547544558663e-01
4.482009861917936044e-01
4.488106695571741911e-01
4.488786075019691735e-01
4.483972155645853386e-01
4.473597221704661564e-01
4.457601686320924461e-01
4.435697221799635992e-01
4.407139693194022101e-01
4.372197568016849001e-01
4.331224376399642750e-01
4.284566487177972061e-01
4.232563107891510468e-01
4.175546284783988593e-01
4.113840902803299615e-01
4.047764685601354939e-01
3.977628195534170796e-01
3.903734833661817172e-01
3.826380839748552143e-01
3.745855292262627589e-01
3.662440108376403547e-01
3.576410043966297136e-01
3.488032693612922452e-01
3.397568490600869628e-01
3.305270706918849166e-01
3.211385453259621992e-01
3.116151679020155996e-01
3.019801172301386227e-01
2.922558559908371434e-01
2.824641307350216346e-01
2.726259718840240431e-01
2.627616937295723654e-01
2.528908944338070786e-01
2.430324560292737024e-01
2.332045444189388972e-01
2.234246093761651508e-01
2.137093845447279872e-01
2.040748874388073064e-01
1.945364194430049265e-01
1.851085658123176048e-01
1.758051956721561337e-01
1.666394620183347941e-01
1.576238017170900063e-01
1.487699355050539074e-01
1.400888679892708932e-01
1.315908876471916233e-01
1.232855668266857885e-01
1.151817617460204612e-01
1.072876124938755282e-01
9.961054302933602944e-02
9.215726118190603611e-02
8.493375865148794501e-02
7.794531100839580118e-02
7.119647769335030185e-02
6.469110201748906608e-02
5.843231116234975930e-02
5.242251617988125112e-02
4.666341199243900784e-02
4.115597739279530654e-02
3.590047504412197110e-02
3.089645148000380592e-02
2.614282750599444816e-02
2.164076320262020570e-02
1.738428906410183217e-02
1.336410396166942682e-02
9.571092470766318083e-03
5.996324871056279981e-03
2.631057146412707493e-03
-5.332690150738339518e-04
-3.505026221099161177e-03
-6.292401375140144193e-03
-8.903395676462200203e-03
-1.134582462011474169e-02
-1.362731799693289725e-02
-1.575531989353345930e-02
-1.773708869232148988e-02
-1.957969707148593530e-02
-2.129003200500045878e-02
-2.287479476262421763e-02
-2.434050090989953175e-02
-2.569348030815554740e-02
-2.693987711450562816e-02
-2.808564978184840966e-02
-2.913657105886618970e-02
-3.009822799002742633e-02
-3.097602191558523899e-02
-3.177516847157768609e-02
-3.250069758982704338e-02
-3.315745349794119168e-02
-3.375009471931278426e-02
-3.428309407311952439e-02
-3.476073867432338815e-02
-3.518712993367190123e-02
-3.556618355769730622e-02
-3.590162954871689571e-02
-3.619701220483223514e-02
-3.645569011993060604e-02
-3.668083618368367382e-02
-3.687543758154837592e-02
-3.704229579476620016e-02
-3.718402660036362883e-02
-3.730306007115230527e-02
-3.740164057572847867e-02
-3.748182677847344824e-02
-3.754549163955334112e-02
-3.759432241491927895e-02
-3.762982065630721129e-02
-3.765330221123808219e-02
-3.766589722301755261e-02
-3.766855013073644454e-02
-3.766201966927029687e-02
-3.764687886927953198e-02
-3.762351505720978873e-02
-3.759212985529114537e-02
-3.755269661243171297e-02
-3.750356832923829042e-02
-3.744509215142882708e-02
-3.737877129219213668e-02
-3.730601618646517403e-02
-3.722814449093347910e-02
-3.714638108403095496e-02
-3.706185806593975673e-02
-3.697561475859051372e-02
-3.688859770566249585e-02
-3.680166067258294760e-02
-3.671556464652780960e-02
-3.663097783642121907e-02
-3.654847567293600941e-02
-3.646854080849298851e-02
-3.639156311726166049e-02
-3.631783969515994803e-02
-3.624757485985391492e-02
-3.618088015075837660e-02
-3.611777432903606755e-02
-3.605818337759864045e-02
-3.600194050110588906e-02
-3.594878612596585921e-02
-3.589836790033523739e-02
-3.585024069411890668e-02
-3.580386659897044632e-02
-3.575861492829152111e-02
-3.571376221723232547e-02
-3.566849222269136144e-02
-3.562189592331577170e-02
-3.557297151950078451e-02
-3.552062443339021325e-02
-3.546366730887612340e-02
-3.540082001159927660e-02
-3.533070962894846456e-02
-3.525187047006106411e-02
-3.516274406582275969e-02
-3.506167916886782088e-02
-3.494693175357871384e-02
-3.481666501608632336e-02
-3.466894937426995282e-02
-3.450176246775749078e-02
-3.431298915792491133e-02
-3.410042152789682923e-02
-3.386175888254594479e-02
-3.359460774849382103e-02
-3.329648187410999549e-02
-3.296480222951264638e-02
-3.259827353311739451e-02
-3.220293128567242036e-02
-3.176644903095682260e-02
-3.127253635120813557e-02
-3.070512041502504452e-02
-3.004834597736810720e-02
-2.928657537955869916e-02
-2.840438854927945789e-02
-2.738658300057394968e-02
-2.621817383384827949e-02
-2.488439373586853742e-02
-2.337069297976268611e-02
-2.166273942501878436e-02
-1.974641851748898391e-02
-1.760783328938403391e-02
-1.523330435927683357e-02
-1.260936993210037826e-02
-9.722785799152533492e-03
-6.560525338088873948e-03
-3.109779512927235423e-03
6.420431259545611447e-04
4.707316441812881003e-03
9.098196711547212878e-03
1.382662262569478440e-02
1.890431528843328213e-02
2.434277821757280247e-02
3.015329734456834165e-02
3.634694101451185766e-02
4.293455998613693314e-02
4.993242279788956406e-02
5.738182466003272086e-02
6.524708321771982567e-02
7.347656291150345131e-02
8.201865024044724395e-02
9.082175376214768336e-02
9.983430409271953909e-02
1.090047539068039750e-01
1.182815779375515630e-01
1.276132729766469298e-01
1.369483578742929364e-01
1.462353735392186715e-01
1.554228829386622435e-01
1.644594710983965369e-01
1.732937451027124487e-01
1.818743340944221076e-01
1.901498892748640923e-01
1.980690839038875550e-01
2.055806132998746483e-01
2.126331948397258698e-01
2.191755679588665018e-01
2.251564941512352869e-01
2.305247569693015253e-01
2.352291620240536396e-01
2.392185369850037269e-01
2.424417315801804529e-01
2.448476175961399326e-01
2.463850888779587356e-01
2.470030613292348853e-01
2.466474566352624409e-01
2.452795817604532802e-01
2.429501123516405459e-01
2.397214027085315946e-01
2.356549860202178381e-01
2.308115743651676377e-01
2.252510587112303009e-01
2.190325089156329730e-01
2.122141737249911841e-01
2.048534807752923070e-01
1.970070365919074362e-01
1.887306265895831725e-01
1.800792150724584983e-01
1.711069452340406860e-01
1.618671391572216178e-01
1.524122978142691265e-01
1.427941010668436483e-01
1.330634076659732434e-01
1.232702552520709149e-01
1.134638603549252833e-01
1.036926183937181278e-01
9.400410367699857384e-02
8.444506940270052331e-02
7.506144765813388409e-02
6.589834942000105666e-02
5.700006455437262032e-02
4.841006181670343134e-02
4.017098885182462942e-02
3.232467219395934732e-02
2.491211726669906312e-02
1.803187004478751243e-02
1.183585149172600159e-02
6.247928410081204920e-03
1.180734179223874580e-03
-3.450491100661867705e-03
-7.727900608582860542e-03
-1.173104080272946437e-02
-1.553685142048716328e-02
-1.921966547842851591e-02
-2.285120927231698573e-02
-2.650060237710033517e-02
-3.023435764692056216e-02
-3.411638121510712773e-02
-3.820797249418045327e-02
-4.256782417584503708e-02
-4.725202223099950194e-02
-5.231404590973021129e-02
-5.780476774131537709e-02
-6.377245353421467922e-02
-7.026276237608447550e-02
-7.731874663376792078e-02
-8.498085195330096209e-02
-9.328691725989823880e-02
-1.022721747579738993e-01
-1.119692499311279454e-01
-1.224081615421542812e-01
-1.336163216330222281e-01
-1.456185355249036695e-01
-1.584370018181556483e-01
-1.720913123923301924e-01
-1.866217282369213581e-01
-2.019039014762807338e-01
-2.160201439199108120e-01
-2.268703773172833227e-01
-2.326252048720311438e-01
-2.317259112419781941e-01
-2.228844625391177281e-01
-2.050835063296080341e-01
-1.775763716338082387e-01
-1.398870689262310951e-01
-9.181029013557012730e-02
-3.341140864466618510e-02
3.497352070938508639e-02
1.127377616353882894e-01
1.990038963879493528e-01
2.926238257675423116e-01
3.921787691203388881e-01
4.959792643384599575e-01
6.020651678598113454e-01
7.080689654133059951e-01
8.094509809005535628e-01
9.007155482982044381e-01
9.772875378564173099e-01
1.035559128936208051e+00
1.072889810009354239e+00
1.087606378658553030e+00
1.079002941577307251e+00
1.047340914569937276e+00
9.938490225516477539e-01
9.207232995484401217e-01
8.311270886971638960e-01
7.291623834289725492e-01
6.186443674752583055e-01
5.034014686835907026e-01
3.871918290060957224e-01
2.732959990107588499e-01
1.645169378816256911e-01
6.318001341849543984e-02
-2.886699796287212072e-02
-1.102539112308436042e-01
-1.800881327377709118e-01
-2.379546602202089467e-01
-2.839160827987663449e-01
-3.185125809781562678e-01
-3.419432561994970587e-01
-3.542942750030380616e-01
-3.573136842300821403e-01
-3.526597884575887187e-01
-3.418638331942194797e-01
-3.263300048803243758e-01
-3.073354308879479024e-01
-2.860301795208279874e-01
-2.634372600143863874e-01
-2.404526225357692670e-01
-2.178451581837861917e-01
-1.962566989889502067e-01
-1.762020179134599629e-01
-1.580688288512338557e-01
-1.421177866278572899e-01
-1.284824870006185948e-01
-1.171694666584949251e-01
-1.079914058475813232e-01
-1.004618378137968615e-01
-9.432922416417349742e-02
-8.938511686467470740e-02
-8.543540161377444209e-02
-8.230029784244435875e-02
-7.981435871416259209e-02
-7.782647112491070107e-02
-7.619985570317699963e-02
-7.481206680995133862e-02
-7.355499253872882504e-02
-7.233485471550826773e-02
-7.107220889879406478e-02
-6.970194437959342793e-02
-6.817328418141832547e-02
-6.644978506028426102e-02
-6.450933750471299355e-02
-6.234416573572842957e-02
-5.996082770685939867e-02
-5.738021510413787718e-02
-5.463755334610337355e-02
-5.178240158379637803e-02
-4.887294962758825800e-02
-4.584075769502632403e-02
-4.263572688053496318e-02
-3.924891621359272165e-02
-3.567213651057171697e-02
-3.189795037473486250e-02
-2.791967219624280627e-02
-2.373136815214343942e-02
-1.932785620637905710e-02
-1.470470610978213966e-02
-9.858239400083845805e-03
-4.785529401901911228e-03
5.155987732516909006e-04
6.046568226974691207e-03
1.180805027396542028e-02
1.779996444203651995e-02
2.402147847210595044e-02
3.047100831820220845e-02
3.714621814745244777e-02
4.404402034010007627e-02
5.116057548949304312e-02
5.849129240209022251e-02
6.603082809744814652e-02
7.377308780824060053e-02
8.171122498024557812e-02
8.983764127235238650e-02
9.814444600325800128e-02
1.066621265881975145e-01
1.153922619710946451e-01
1.243053471224123685e-01
1.333723882322664922e-01
1.425649027104497479e-01
1.518549191864158043e-01
1.612149775092872606e-01
1.706181287478391040e-01
1.800379351905238012e-01
1.894484703454549779e-01
1.988243189404146349e-01
2.081405769228377167e-01
2.173728514598363137e-01
2.264972609381833424e-01
2.354904349643203165e-01
2.443295143643423595e-01
2.529921511840208526e-01
2.614565086887886691e-01
2.697012613637463918e-01
2.777055949136494339e-01
2.854492062629288007e-01
2.929123035556764343e-01
3.000756061556525411e-01
3.069203446462730467e-01
3.134282608306278028e-01
3.195816077314689307e-01
3.253631495912153726e-01
3.307561618719440100e-01
3.357444312554036525e-01
3.403122556430060452e-01
3.444444441558289771e-01
3.481263171346105079e-01
3.513437061397582939e-01
3.540829539513439261e-01
3.563309145691042623e-01
3.580749532124378742e-01
3.593029463204119311e-01
3.600032815517572038e-01
3.601648577848692856e-01
3.597770851178085927e-01
3.588298848683010300e-01
3.573134343741027896e-01
3.551832991453324206e-01
3.524325137465805780e-01
3.490905382915869826e-01
3.451863889281715503e-01
3.407486378382311720e-01
3.358054132377481515e-01
3.303843993767781040e-01
3.245128365394578385e-01
3.182175210440005841e-01
3.115248052427069814e-01
3.044605975219489835e-01
2.970503623021806261e-01
2.893191200379310324e-01
2.812914472178196235e-01
2.729914763645343578e-01
2.644428960348460533e-01
2.556689508196010596e-01
2.466924413437360242e-01
2.375357242662557988e-01
2.282207122802482058e-01
2.187688741128758219e-01
2.092012345253936312e-01
1.995383743131226018e-01
1.898004303054676711e-01
1.800070953659084205e-01
1.701776183920168384e-01
1.603308043154308971e-01
1.504850141018727605e-01
1.406581647511430111e-01
1.308677292971177630e-01
1.211307368077648716e-01
1.114637723851192863e-01
1.018829771652984828e-01
9.240404831849557965e-02
8.304223904899554753e-02
7.381235859515000719e-02
6.472877222939354969e-02
5.580540125823685305e-02
4.705572302228105963e-02
3.849277089619501657e-02
3.012913428873070787e-02
2.197695864271559385e-02
1.404794543506748816e-02
6.353352176772242288e-03
-1.096007587100822356e-03
-8.289764277407019044e-03
-1.521799228091247347e-02
-2.187120995031344162e-02
-2.824059545823248696e-02
-3.432616944677108206e-02
-4.013596916503114898e-02
-4.567774760417997459e-02
-5.095916371310366122e-02
-5.598778239841223359e-02
-6.077107452443070157e-02
-6.531641691321260490e-02
-6.963109234453063179e-02
-7.372228955588128185e-02
-7.759710324247703905e-02
-8.126253405725769596e-02
-8.472548861088280425e-02
-8.799277947173506087e-02
-9.107112516591442386e-02
-9.396715017724704966e-02
-9.668738494727918686e-02
-9.923826587528006282e-02
-1.016261353182368876e-01
-1.038572415908621815e-01
-1.059377389655889456e-01
-1.078736876725727711e-01
-1.096710538996882311e-01
-1.113357097925343209e-01
-1.128734334544306828e-01
-1.142899089464194384e-01
-1.155907262872623020e-01
-1.167813814534446326e-01
-1.178672763791729916e-01
-1.188537189563759755e-01
-1.197459230347023840e-01
-1.205490084215241064e-01
-1.212680008819344013e-01
-1.219078321387482844e-01
-1.224733398725018074e-01
-1.229692677214534458e-01
-1.234002652815829326e-01
-1.237708881065920918e-01
-1.240855977079037831e-01
-1.243487615546631231e-01
-1.245646530737366531e-01
-1.247374516497128383e-01
-1.248712426249012353e-01
-1.249700172993336578e-01
-1.250376729307635104e-01
-1.250780127346656778e-01
-1.250947458842367466e-01
-1.250914875103952828e-01
-1.250717587017810550e-01
-1.250382742645048118e-01
-1.249882862164093944e-01
-1.249220046327170763e-01
-1.248405944974161907e-01
-1.247451774066911101e-01
-1.246368315689219686e-01
-1.245165918046849951e-01
-1.243854495467520693e-01
-1.242443528400911101e-01
-1.240942063418660757e-01
-1.239358713214367413e-01
-1.237701656603586442e-01
-1.235978638523834716e-01
-1.234196970034587282e-01
-1.232363528317277357e-01
-1.230484756675299107e-01
-1.228566664534003761e-01
-1.226614827440704047e-01
-1.224634387064669760e-01
-1.222630051197131085e-01
-1.220606093751276378e-01
-1.218566354762253834e-01
-1.216514240387171486e-01
-1.214452722905094428e-01
-1.212384340717047038e-01
-1.210311198346016304e-01
-1.208234966436944613e-01
-1.206156881756734189e-01
-1.204077747194246539e-01
-1.201997931760305227e-01
-1.199917370587687548e-01
-1.197835564931134522e-01
-1.195751582167342564e-01
-1.193664055794971257e-01
-1.191571185434636138e-01
-1.189470736828913688e-01
-1.187360041842336900e-01
-1.185235998461401929e-01
-1.183095070794561443e-01
-1.180933289072226833e-01
-1.178746249646769328e-01
-1.176529114992521108e-01
-1.174276613705770300e-01
-1.171983040504765983e-01
-1.169642256229715960e-01
-1.167247687842787318e-01
-1.164792328428105872e-01
-1.162268737191758383e-01
-1.159669039461785900e-01
-1.156984926688195969e-01
-1.154207656442948760e-01
-1.151328052419967052e-01
-1.148336504435129579e-01
-1.145561281990419289e-01
-1.143374267297392333e-01
-1.141577540370942168e-01
-1.139973889795612982e-01
-1.138371726116997329e-01
-1.136585081841738898e-01
-1.134433611437529188e-01
-1.131742591333110282e-01
-1.128342919918274845e-01
-1.124071117543866682e-01
-1.118769326521776297e-01
-1.112285311124946441e-01
-1.104472457587364898e-01
-1.095189774104080027e-01
-1.084301890831180781e-01
-1.071679059885807250e-01
-1.057197155346144557e-01
-1.040737673251446727e-01
-1.022187731601997829e-01
-1.001440070359139178e-01
-9.783930514452499061e-02
-9.529506587437913678e-02
-9.250224980992449719e-02
-8.945237973171488166e-02
-8.613754061640788162e-02
-8.255037963677036572e-02
-7.868410616166993110e-02
-7.453249175608051003e-02
-7.008987018107892819e-02
-6.535113739385312037e-02
-6.031175154769002900e-02
-5.496773299198365326e-02
-4.931566427223005311e-02
-4.335269013003839600e-02
-3.707651750311474759e-02
-3.048541552527322951e-02
-2.357821552642941354e-02
-1.635431103261303365e-02
-8.813657765950166922e-03
-9.567736446743912992e-04
7.215261216879154116e-03
1.570080450825961371e-02
2.449765172292162063e-02
3.360270856689612229e-02
4.297718796006638753e-02
5.253976009932387337e-02
6.221285992276553989e-02
7.192158490176875363e-02
8.159369504100022485e-02
9.115961287839818850e-02
1.005524234851986609e-01
1.097078744659181204e-01
1.185643759583615564e-01
1.270630006336068707e-01
1.351474836960288028e-01
1.427642228832824989e-01
1.498622784663110608e-01
1.563933732493328899e-01
1.623118925698607828e-01
1.675748842986890530e-01
1.721420588398981932e-01
1.759757891308482147e-01
1.790411106421893050e-01
1.813057213778548338e-01
1.827399818750629068e-01
1.833169152043147010e-01
1.830122069693982390e-01
1.818037063282498256e-01
1.796723594890037301e-01
1.766554888189894035e-01
1.728065827273983501e-01
1.681793137382958658e-01
1.628275384906185952e-01
1.568052977381838575e-01
1.501668163496752140e-01
1.429665033086524595e-01
1.352589517135447394e-01
1.270989387776654267e-01
1.185414258291909162e-01
1.096415583111747249e-01
1.004546657815393873e-01
9.103626191309344140e-02
8.144204449350639363e-02
7.172789542532576057e-02
6.194988072596752104e-02
5.216425052773482340e-02
4.242743907779061852e-02
3.279606473817620049e-02
2.332692998580215837e-02
1.407702141246436334e-02
5.103509724820487481e-03
-3.541131964300392454e-03
-1.190990486533061166e-02
-1.999187112034811475e-02
-2.773738361370597927e-02
-3.510521679086014979e-02
-4.206256665837604380e-02
-4.858505078391650578e-02
-5.465670829626040339e-02
-6.026999988528991548e-02
-6.542580780199602764e-02
-7.013343585846970596e-02
-7.441060942791510868e-02
-7.828347544464103747e-02
-8.178660240406393500e-02
-8.496298036270261145e-02
-8.786402093818690417e-02
-9.054955730925179358e-02
-9.308784421573990109e-02
-9.555555795859699275e-02
-9.803779639987902916e-02
-1.006280789627472250e-01
-1.034283466314706579e-01
-1.065489619514214947e-01
-1.101087090290817083e-01
-1.142347935320390806e-01
-1.190628426889900338e-01
-1.264237207766727433e-01
-1.382704918312041009e-01
-1.535248809734570397e-01
-1.711325983355911629e-01
-1.900934677747996293e-01
-2.094614268733567264e-01
-2.283445269385870890e-01
-2.459049330028807434e-01
-2.613589238236619927e-01
-2.739768918834371014e-01
-2.830833433897618212e-01
-2.880568982752511609e-01
-2.883302901975717258e-01
-2.833903665394559290e-01
-2.727780884086906665e-01
-2.560885306381209814e-01
-2.329708817856373515e-01
-2.031284441342207092e-01
-1.663186336918802410e-01
-1.223529801916917736e-01
-7.109712709176474466e-02
-1.247083157533601661e-02
5.355203544936654181e-02
1.269434893490355432e-01
2.076214317653433117e-01
2.954496506147968882e-01
3.902378200889482507e-01
4.917415006542605882e-01
5.990857110384163464e-01
7.060524879398500930e-01
8.064238124951282893e-01
8.952501728748191168e-01
9.684750397059355143e-01
1.022934866071808724e+00
1.056359087512289019e+00
1.067370122023603152e+00
1.055483370058383219e+00
1.021107214525697415e+00
9.655430207910161711e-01
8.909851366762259195e-01
8.005208924595849096e-01
6.978264039090481541e-01
5.867146973539646426e-01
4.713119812600977676e-01
3.552947370800707549e-01
2.418664216824286672e-01
1.337574673513295398e-01
3.322528178675016042e-02
-5.794575189560408068e-02
-1.384442751641390412e-01
-2.074319540716182131e-01
-2.645434792549952174e-01
-3.098865659354727020e-01
-3.440335757821442741e-01
-3.666334543035214555e-01
-3.783308106302684104e-01
-3.808723100900522351e-01
-3.758805875424130472e-01
-3.648542473787701468e-01
-3.491678635224137461e-01
-3.300719794284996955e-01
-3.086931080840838448e-01
-2.860337320080716950e-01
-2.629723032512504277e-01
-2.402632433962716696e-01
-2.185369435576917096e-01
-1.982997643819100764e-01
-1.799340360472112266e-01
-1.636980582637465875e-01
-1.497261002735637558e-01
-1.380284008505616722e-01
-1.284870475965885217e-01
-1.206388046237497624e-01
-1.141311676146272158e-01
-1.087783604481232791e-01
-1.044062269815536070e-01
-1.008522310506411723e-01
-9.796545646952281583e-02
-9.560660703073964317e-02
-9.364800650524357506e-02
-9.197359864239501581e-02
-9.047894716996568443e-02
-8.907123579413400716e-02
-8.766926819948861471e-02
-8.620346804902623283e-02
-8.461587898415501297e-02
-8.286016462469020238e-02
-8.090160856885658669e-02
-7.871711439328754611e-02
-7.629520565302810864e-02
-7.363602588152973194e-02
-7.075133859065402264e-02
-6.766452727067007178e-02
-6.441059539026045000e-02
-6.103616639651260334e-02
-5.759621037034123869e-02
-5.402924339001446974e-02
-5.028040793128990549e-02
-4.634090489142567160e-02
-4.220278853199155300e-02
-3.785896647886571875e-02
-3.330319972224232705e-02
-2.853010261662020097e-02
-2.353514288081015593e-02
-1.831464159793083635e-02
-1.286577321541831909e-02
-7.186565545012069123e-03
-1.275899762763765821e-03
4.866489590967082446e-03
1.124001461150281322e-02
1.784323402986348617e-02
2.467385321275616938e-02
3.172872416258093464e-02
3.900384551741820083e-02
4.649436255104727467e-02
5.419456717293452686e-02
6.209789792823927623e-02
7.019693999780013405e-02
7.848342519815593166e-02
8.694823198153189825e-02
9.558138543584654423e-02
1.043720572846971173e-01
1.133085658873816959e-01
1.223841410440835720e-01
1.316245748768652968e-01
1.410086272540606034e-01
1.505049619220062418e-01
1.600829337497924332e-01
1.697125887292707525e-01
1.793646639750372529e-01
1.890105877244582233e-01
1.986224793376528686e-01
2.081731492975017472e-01
2.176360992096302294e-01
2.269855218024334764e-01
2.361963009270597880e-01
2.452440115574189283e-01
2.541049197901653622e-01
2.627559828447235679e-01
2.711748490632707176e-01
2.793398579107450042e-01
2.872300399748314303e-01
2.948251169659826809e-01
3.021055017174052448e-01
3.090522981850629680e-01
3.156473014476793848e-01
3.218729977067273929e-01
3.277125642864455735e-01
3.331498696338266452e-01
3.381694733186226820e-01
3.427566260333370085e-01
3.468972695932363015e-01
3.505780369363427074e-01
3.537862521234368396e-01
3.565099303380523388e-01
3.587377778864843103e-01
3.604591921977839952e-01
3.616642618237601026e-01
3.623437664389772550e-01
3.624891768407589865e-01
3.620926549491851887e-01
3.611470538070929992e-01
3.596459175800780228e-01
3.575390053256288780e-01
3.547838487972543309e-01
3.514142437948569730e-01
3.474637635598507579e-01
3.429653176478636434e-01
3.379511519287441423e-01
3.324528485865566596e-01
3.265013261195920391e-01
3.201268393403523538e-01
3.133589793755612307e-01
3.062266736661575228e-01
2.987581859673085205e-01
2.909811163483907448e-01
2.829224011929993843e-01
2.746083131989623949e-01
2.660644613783010870e-01
2.573157910572776430e-01
2.483865838763736900e-01
2.393004577902656527e-01
2.300803670678811530e-01
2.207486022923333957e-01
2.113267903609795662e-01
2.018358944853954062e-01
1.922962141913503453e-01
1.827273853188580155e-01
1.731483800221504943e-01
1.635775067696536578e-01
1.540324103440456893e-01
1.445300718421896891e-01
1.350868086751934039e-01
1.257182745683825820e-01
1.164394595612769923e-01
1.072646900076404952e-01
9.820762857545500824e-02
8.928127424689730196e-02
8.049796231839473348e-02
7.186936440056185260e-02
6.340648841825607951e-02
5.511967861055239171e-02
4.701861553072267386e-02
3.911231604627984915e-02
3.140913333895506421e-02
2.391675690467742754e-02
1.664221255362219321e-02
9.591862410156970498e-03
2.771404912887576177e-03
-3.814125185362005066e-03
-1.016035681756694009e-02
-1.626358260246513199e-02
-2.212075884457742614e-02
-2.772950553422082187e-02
-3.308810634747344492e-02
-3.819550864621418240e-02
-4.305132347808809934e-02
-4.765582557652364715e-02
-5.200828325510498118e-02
-5.611346986276827264e-02
-5.998039218018458296e-02
-6.361788382923161400e-02
-6.703460516627984811e-02
-7.023904328221797222e-02
-7.323951200243133952e-02
-7.604415188681179494e-02
-7.866093022976444749e-02
-8.109764106019262675e-02
-8.336190514150615405e-02
-8.546116997162661599e-02
-8.740270978297365323e-02
-8.919362554247994845e-02
-9.084084495157873640e-02
-9.235112244620957700e-02
-9.373103919682179708e-02
-9.498700310836649674e-02
-9.612524882030104578e-02
-9.715183770659169271e-02
-9.807265787570640381e-02
-9.889342417062263468e-02
-9.961967816882122406e-02
-1.002567881822888918e-01
-1.008099492575202372e-01
-1.012841831755135202e-01
-1.016843384517733817e-01
-1.020150903363111761e-01
-1.022809408136429177e-01
-1.024862186027913902e-01
-1.026350791572844812e-01
-1.027315046651560704e-01
-1.027793040489461962e-01
-1.027821129657004451e-01
-1.027433938069702291e-01
-1.026664356988127302e-01
-1.025543545017912894e-01
-1.024100928109744624e-01
-1.022364199559371856e-01
-1.020359320007601656e-01
-1.018110517440293794e-01
-1.015640287188372959e-01
-1.012969391927820983e-01
-1.010116861679671296e-01
-1.007099993810026684e-01
-1.003934353030035420e-01
-1.000633771395913474e-01
-9.972103483089361786e-02
-9.936744505154249119e-02
-9.900347121067715195e-02
-9.862980345194255483e-02
-9.824695865348836987e-02
-9.785183763174087890e-02
-9.743485127123974188e-02
-9.699820165867251154e-02
-9.654485614789426462e-02
-9.607762659232094160e-02
-9.559916934493245533e-02
-9.511198525826930483e-02
-9.461841968443568396e-02
-9.412066247509776051e-02
-9.362074798148289911e-02
-9.312055505438204817e-02
-9.262180704414835208e-02
-9.212607180069593005e-02
-9.163476167350304014e-02
-9.114913351160836008e-02
-9.067028866361409589e-02
-9.019917297768476061e-02
-8.973657680154600857e-02
-8.928313498248691138e-02
-8.883932686735879214e-02
-8.840547630257400424e-02
-8.798175163410903998e-02
-8.756816570750070028e-02
-8.716457586784959188e-02
-8.677068395981818449e-02
-8.638603632763058870e-02
-8.601002381507388828e-02
-8.564188176549764053e-02
-8.528069002181259961e-02
-8.492537292649315894e-02
-8.457469932157457571e-02
-8.422728254865552433e-02
-8.388158044889676423e-02
-8.353589536302064023e-02
-8.318837413131235925e-02
-8.283700809361965733e-02
-8.247963308935168936e-02
-8.211392945748080541e-02
-8.173742203654066341e-02
-8.134748016462800546e-02
-8.094131767940199174e-02
-8.051599291808281267e-02
-8.006840871745429800e-02
-7.959531241386230693e-02
-7.909329584321383999e-02
-7.855879534098003658e-02
-7.798809174219223372e-02
-7.737731038144562978e-02
-7.672242109289773015e-02
-7.601923821026662642e-02
-7.526342056683438253e-02
-7.445047149544548049e-02
-7.357573882850459990e-02
-7.263441489798155848e-02
-7.162153653540537235e-02
-7.053198507186964061e-02
-6.936048633803065799e-02
-6.810161066410380659e-02
-6.674977287986971763e-02
-6.531070518364401334e-02
-6.378838750553383896e-02
-6.214933985781057046e-02
-6.036113878226045948e-02
-5.839364688427090000e-02
-5.621901283282726425e-02
-5.381167136050568622e-02
-5.114834326348532967e-02
-4.820803540154305900e-02
-4.497204069804494608e-02
-4.142393813996492202e-02
-3.754959277786190652e-02
-3.333715572590117970e-02
-2.877706416184627747e-02
-2.386204132704528025e-02
-1.858709652645545995e-02
-1.294952512863212224e-02
-6.948908565712841323e-03
-5.871143334523210022e-04
6.131704008819349738e-03
1.320110683815822750e-02
2.061236846802222411e-02
2.835447714829214538e-02
3.641413506523222265e-02
4.477575834150848699e-02
5.342147703621230592e-02
6.233113514480803641e-02
7.148229059919403161e-02
8.085021526764801791e-02
9.040789495484991001e-02
1.001445704043351093e-01
1.100738283263228423e-01
1.201041884060175535e-01
1.301392576214538410e-01
1.400878985156349676e-01
1.498642291966031381e-01
1.593876233373776596e-01
1.685827101759825863e-01
1.773793745154701451e-01
1.857127567238716637e-01
1.935232527342238829e-01
2.007565140445876084e-01
2.073634477180015256e-01
2.133002163825317155e-01
2.185282382312307980e-01
2.230141870221571399e-01
2.267299920783850675e-01
2.296528382879799990e-01
2.317651661040140976e-01
2.330546715445684924e-01
2.335143061927222874e-01
2.331422771965609986e-01
2.319420472691726687e-01
2.299223346886521968e-01
2.270971132980921237e-01
2.234856125055939557e-01
2.191123172842658340e-01
2.140069681722077677e-01
2.082045612725398342e-01
2.017453482533674292e-01
1.946705290708186098e-01
1.870078570702727871e-01
1.788348965815813596e-01
1.702351431220350264e-01
1.612880612849970641e-01
1.520690847398786794e-01
1.426496162321947425e-01
1.330970275834980621e-01
1.234746596914385597e-01
1.138418225297377351e-01
1.042537951481627978e-01
9.476182567258661926e-02
8.541313130491962058e-02
7.625089832316928051e-02
6.731428208141365666e-02
5.863840700977879239e-02
5.025436661448612341e-02
4.218922347782738669e-02
3.446600925814458094e-02
2.710372468987914951e-02
2.011733958351757945e-02
1.351779282563697615e-02
7.311992378885134869e-03
1.502815281964775540e-03
-3.910892350333150524e-03
-8.934315327147612784e-03
-1.357666938155943637e-02
-1.785120117056054889e-02
-2.177518827508728716e-02
-2.536993919999308567e-02
-2.865185453408863880e-02
-3.163221299786855845e-02
-3.435834100112805656e-02
-3.689025210494756291e-02
-3.929932944751673984e-02
-4.166832574411938328e-02
-4.409136328715035358e-02
-4.667393394610119817e-02
-4.953289916756559164e-02
-5.279648997524766241e-02
-5.660430696994700472e-02
-6.110732032956384119e-02
-6.646786980911345566e-02
-7.285966474069616172e-02
-8.046778403353616049e-02
-8.948867617394407059e-02
-1.001344875543702662e-01
-1.125076006896367220e-01
-1.262634387879824072e-01
-1.409277808071953686e-01
-1.559590010625069301e-01
-1.707480692265000988e-01
-1.846185503292137042e-01
-1.968266047580504163e-01
-2.065609882578222922e-01
-2.129430519307702885e-01
-2.150267422365113312e-01
-2.117986009920812818e-01
-2.021777653719091239e-01
-1.850159679078518249e-01
-1.591268221796801330e-01
-1.242094290900938036e-01
-7.955890897025152952e-02
-2.443037019605770466e-02
4.143094025279370207e-02
1.177896367928953358e-01
2.039201952373727034e-01
2.986069527953876257e-01
4.001441080727472510e-01
5.063357210713317347e-01
6.144957131893308278e-01
7.214478672215473010e-01
8.235258273588194067e-01
9.165730991883257461e-01
9.959375500927042379e-01
1.056092834871384056e+00
1.094786498932176944e+00
1.111797202830097309e+00
1.107332628861684931e+00
1.082029481064904264e+00
1.036953485219169746e+00
9.735993888454114176e-01
8.938909612058302256e-01
8.001809933043245726e-01
6.952512978859338721e-01
5.823127094373916623e-01
4.650050841869046714e-01
3.473973001038120900e-01
2.339872568992136248e-01
1.296766472767140188e-01
3.625906883625157340e-02
-4.666432714098450729e-02
-1.185993749544496656e-01
-1.792591672736529862e-01
-2.285640551384241492e-01
-2.666416479589994171e-01
-2.938268135157588445e-01
-3.106616779594014721e-01
-3.178956258109466582e-01
-3.164852999616496465e-01
-3.075946016730581878e-01
-2.925946905770005491e-01
-2.730639846756072187e-01
-2.507772601709301052e-01
-2.271370224743137489e-01
-2.030008716781822320e-01
-1.791343359924568168e-01
-1.561852658124924520e-01
-1.346838337189110724e-01
-1.150425344777459280e-01
-9.755618504037305572e-02
-8.240192454347200490e-02
-6.963921430911934607e-02
-5.920983784473238254e-02
-5.093790084305138688e-02
-4.452983118219905334e-02
-3.957437892562132298e-02
-3.554261632213073785e-02
-3.197370527959908504e-02
-2.891489359272664261e-02
-2.627142113444186355e-02
-2.394340681065570964e-02
-2.184045786883276330e-02
-1.988166989800560502e-02
-1.799562682875932573e-02
-1.612040093324418333e-02
-1.420355282517021811e-02
-1.220213145980225677e-02
-1.008267413397034851e-02
-7.821206486064213870e-03
-5.403242496028082265e-03
-2.823784485373959097e-03
-8.732311716497243026e-05
2.792162603968917356e-03
5.793578581843150666e-03
8.938517731424067136e-03
1.224755932309351536e-02
1.572936936763214000e-02
1.939197922317292822e-02
2.324278559517900522e-02
2.728855053646972451e-02
3.153540144719735316e-02
3.598883107485650878e-02
4.065369751429653844e-02
4.553422420769359658e-02
5.063399994458384068e-02
5.595597886183323322e-02
6.150248044365042022e-02
6.727518952160116417e-02
7.327515627458025538e-02
7.950279622882411301e-02
8.595789025792893723e-02
9.263958458281157382e-02
9.954639077175475581e-02
1.066761857403668579e-01
1.140262117515983276e-01
1.215930764157620025e-01
1.293727526904946412e-01
1.373605788807749084e-01
1.455670534095372393e-01
1.540261490976200243e-01
1.627164553902008537e-01
1.716130076971456031e-01
1.806911024639514807e-01
1.899262971717724513e-01
1.992944103373704978e-01
2.087715215131396018e-01
2.183339712871309457e-01
2.279583612829945150e-01
2.376215541600462666e-01
2.473006736132091765e-01
2.569731043730381082e-01
2.666164922057460140e-01
2.762087439131524214e-01
2.857280273327093001e-01
2.951527713375259321e-01
3.044616658363108463e-01
3.136336617734371002e-01
3.226479711288861019e-01
3.314840669182715915e-01
3.401216831928631779e-01
3.485408150395390425e-01
3.567217185808104762e-01
3.646449109748421957e-01
3.722911704154034940e-01
3.796415361319229742e-01
3.866773083894411434e-01
3.933800484886316173e-01
3.997315787658186625e-01
4.057139825929398924e-01
4.113096043775670285e-01
4.165010495629190013e-01
4.212711846278270889e-01
4.256031370867729979e-01
4.294802954898582215e-01
4.328863094228171393e-01
4.358050895070259001e-01
4.382208073994836584e-01
4.401178957928231217e-01
4.414810484153147696e-01
4.422952200308547521e-01
4.425456264389759919e-01
4.422158089425280991e-01
4.412529851480271326e-01
4.396590133431846903e-01
4.374609051502206247e-01
4.346853376821085968e-01
4.313586535425651958e-01
4.275068608260685910e-01
4.231556331178347730e-01
4.183303094938408684e-01
4.130558945208162580e-01
4.073570582562271447e-01
4.012581362483038649e-01
3.947831295360296755e-01
3.879557046491206584e-01
3.807991936080674655e-01
3.733365939240864684e-01
3.655905685991646115e-01
3.575834461260395392e-01
3.493372204881787235e-01
3.408735511598219858e-01
3.322137631059601803e-01
3.233788467823121016e-01
3.143894581353781081e-01
3.052659186023780613e-01
2.960282151113061699e-01
2.866960000809081199e-01
2.772885914206553171e-01
2.678249725307947360e-01
2.583237923023244953e-01
2.488033651169682114e-01
2.392816708472338405e-01
2.297763548563463987e-01
2.203047279983072482e-01
2.108837666178680070e-01
2.015301125505065682e-01
1.922600731224763937e-01
1.830896211507812010e-01
1.740343949431518711e-01
1.651096982981017369e-01
1.563305005048631902e-01
1.477114363434434141e-01
1.392668060845994038e-01
1.310105754898172048e-01
1.229563758113555449e-01
1.151175037922234079e-01
1.075069216661603821e-01
1.001372571576835124e-01
9.302080348203412008e-02
8.616951934522448786e-02
7.959502894401637718e-02
7.330847367511761359e-02
6.730919273049990048e-02
6.158751299119008538e-02
5.613583619282735970e-02
5.094665180166885188e-02
4.601253701455104705e-02
4.132615675892314933e-02
3.688026369283131656e-02
3.266769820490861287e-02
2.868138841439848985e-02
2.491435017114185246e-02
2.135968705556795522e-02
1.801059037871743929e-02
1.486033918221724148e-02
1.190230023830141093e-02
9.129928049801727674e-03
6.536764850141207894e-03
4.116440603350701721e-03
1.862673004050241499e-03
-2.307325225349154962e-04
-2.169882820581947591e-03
-3.960797003674521033e-03
-5.609406454793020025e-03
-7.121554826319764775e-03
-8.502998040042730743e-03
-9.759404287146389301e-03
-1.089635402822158872e-02
-1.191933999325744953e-02
-1.283376718164480623e-02
-1.364495286217903836e-02
-1.435812657305424178e-02
-1.497843012186678147e-02
-1.551091758561629064e-02
-1.596055531070156297e-02
-1.633222191292532655e-02
-1.663070827749035807e-02
-1.686071755900148128e-02
-1.702686518146578898e-02
-1.713367883829125526e-02
-1.718559849228773473e-02
-1.718697637566674041e-02
-1.714207699004166585e-02
-1.705507710642706343e-02
-1.693006576523942153e-02
-1.677104427629694250e-02
-1.658192621881920958e-02
-1.636653744142757549e-02
-1.612861606214527344e-02
-1.587181246839658444e-02
-1.559968931700828065e-02
-1.531569595082726831e-02
-1.501871664242176996e-02
-1.470719683178917103e-02
-1.438216815045179064e-02
-1.404462584004428916e-02
-1.369552875231327960e-02
-1.333579934911610643e-02
-1.296632370242312149e-02
-1.258795149431518601e-02
-1.220149601698622410e-02
-1.180773417274139092e-02
-1.140740647399707264e-02
-1.100121704328210770e-02
-1.058983361323734274e-02
-1.017388752661435580e-02
-9.753973736277843365e-03
-9.330650805202678200e-03
-8.904440906476962514e-03
-8.475829823300251586e-03
-8.045266948982998656e-03
-7.613165286948275767e-03
-7.179901450731329682e-03
-6.745815663977527965e-03
-6.311211760446078234e-03
-5.876357184006142376e-03
-5.441482988639778640e-03
-5.006783838440886925e-03
-4.572418007614043045e-03
-4.138507380476608155e-03
-3.705137451457951592e-03
-3.272357325097896563e-03
-2.840179716049551217e-03
-2.408580949076311040e-03
-1.977500959054578900e-03
-1.546843290972432783e-03
-1.116475099928682102e-03
-6.862271511348660979e-04
-2.558938199145321946e-04
1.747669082984293354e-04
6.060334379563991902e-04
1.038220563401970331e-03
1.471679468864339757e-03
1.906797728461528951e-03
2.343999306200328370e-03
2.783744555975020685e-03
3.226530221567880385e-03
3.672889436650672579e-03
4.123391725596114998e-03
4.581263309036298637e-03
5.048935498611573092e-03
5.526295548455684159e-03
6.013862215615450868e-03
6.512785760048489525e-03
7.024847944624712515e-03
7.552462035126883411e-03
8.098672800248341019e-03
8.667156511596330049e-03
9.262220943688448394e-03
9.888805373954367983e-03
1.055248058273750011e-02
1.125944885329166478e-02
1.201654397178236744e-02
1.283123122728929699e-02
1.371160741180127429e-02
1.466640082022241387e-02
1.570497125036618424e-02
1.683731000295801694e-02
1.807403988163835962e-02
1.942641519295668084e-02
2.090632174637430118e-02
2.252627685426811244e-02
2.429942933192180687e-02
2.623955949753720152e-02
2.836107917222319141e-02
3.067903168000041259e-02
3.320909184780745926e-02
3.596756600548911553e-02
3.897139198580129582e-02
4.223813912441998220e-02
4.578600825992190648e-02
4.963383173380842006e-02
5.380107339048306736e-02
5.830782857726052315e-02
6.317482414437969318e-02
6.846077032744818380e-02
7.420990477239103322e-02
8.040039929695619314e-02
8.700891076411798597e-02
9.401084044694557607e-02
1.013803340285633903e-01
1.090902816021666055e-01
1.171123176710434644e-01
1.254168211485344742e-01
1.339729153580506704e-01
1.427484680330993738e-01
1.517100913172285681e-01
1.608231417640906269e-01
1.700517203373863584e-01
1.793586724108880981e-01
1.887055877684657990e-01
1.980528006040284117e-01
2.073593895215907201e-01
2.165831775352142774e-01
2.256807320690339402e-01
2.346073649572807396e-01
2.433171324442336969e-01
2.517628351842451373e-01
2.598960182417618947e-01
2.676669710912737976e-01
2.750247276173714006e-01
2.819170661146963575e-01
2.882905092879646247e-01
2.940903242519810057e-01
2.992605225316056217e-01
3.037438600617728968e-01
3.074818371875015499e-01
3.104146986638679495e-01
3.124814336560323147e-01
3.136197757392193974e-01
3.137662028987295848e-01
3.128675565841300132e-01
3.109609310488364864e-01
3.081184172272756205e-01
3.044104352946657155e-01
2.999057195150790500e-01
2.946713182414171239e-01
2.887725939154357491e-01
2.822732230677357235e-01
2.752351963177436245e-01
2.677188183737461147e-01
2.597827080328739546e-01
2.514837981810801315e-01
2.428773357931887089e-01
2.340168819328374283e-01
2.249543117525292235e-01
2.157398144936111262e-01
2.064218934862481758e-01
1.970473661494730466e-01
1.876613639911614007e-01
1.783073326080069076e-01
1.690270316855795318e-01
1.598605349982589185e-01
1.508462304092925699e-01
1.420208198707704206e-01
1.334193194236016344e-01
1.250750591975625658e-01
1.170196834112707807e-01
1.092831503721661823e-01
1.018937324765589736e-01
9.487801620957597715e-02
8.826090214520693200e-02
8.206560494628239999e-02
7.631365336446005454e-02
7.097746942574095774e-02
6.597607334929067591e-02
6.133421309310688185e-02
5.706742290303845611e-02
5.317734024275683202e-02
4.965170579378375137e-02
4.646436345547866331e-02
4.357526034503073076e-02
4.093044679747681602e-02
3.846207636569165533e-02
3.608840582038186362e-02
3.371379515010181072e-02
3.122870756123552471e-02
2.850970947801251265e-02
2.541947054250126570e-02
2.180676361460093249e-02
1.750646477205713980e-02
1.233955331045677450e-02
6.160716121111797783e-03
-1.181465498347800125e-03
-9.918234654679225493e-03
-2.016216887632876764e-02
-3.190124690567769372e-02
-4.499884869907938567e-02
-5.919375542679705671e-02
-7.410014947303017463e-02
-8.920761443595892626e-02
-1.038811351276511252e-01
-1.173610975741670726e-01
-1.287632890154674636e-01
-1.370788979054607948e-01
-1.411745139120170744e-01
-1.400542198034000485e-01
-1.334155891421032192e-01
-1.196078854973620098e-01
-9.714498204610566567e-02
-6.492047318354582375e-02
-2.220767452329724945e-02
3.134037710264020449e-02
9.569092364406583950e-02
1.704314858322927284e-01
2.547698631802490787e-01
3.475341339827444642e-01
4.471726553159274253e-01
5.517540630379382804e-01
6.589672717883051645e-01
7.661920473698843326e-01
8.705351887730424787e-01
9.668622138143881939e-01
1.050372239062835611e+00
1.117183804976291217e+00
1.164334875901169575e+00
1.189782840072854064e+00
1.192404509615367925e+00
1.171996120541584308e+00
1.129273332753083725e+00
1.065871230040264628e+00
