1.044606909144251805e+00
1.040312504822254347e+00
1.030446096935516920e+00
1.014954609210775960e+00
9.939103993630759026e-01
9.677192936618607133e-01
9.367906777012963149e-01
9.015348126626182568e-01
8.623628353141322700e-01
8.196867580112133789e-01
7.739194686963067893e-01
7.254747308989274446e-01
6.747671837356595814e-01
6.222123419101580621e-01
5.682265957131469314e-01
5.132272110224206374e-01
4.576323293028430328e-01
4.018609676063475966e-01
3.463330185719378784e-01
2.914692504256877204e-01
2.376913069807400358e-01
1.854217076373073647e-01
1.350471966578816740e-01
8.675556911647347436e-02
4.067822940507737073e-02
-3.066541630186381262e-03
-4.437521130775623490e-02
-8.315899511062968541e-02
-1.193438566863634920e-01
-1.528705078470730672e-01
-1.836944085694323936e-01
-2.117857669946751620e-01
-2.371295394285934943e-01
-2.597254303415386101e-01
-2.795878923684208539e-01
-2.967461263087090018e-01
-3.112440811264313156e-01
-3.231404539501743223e-01
-3.325086900730846451e-01
-3.394369829528666727e-01
-3.440282742117843906e-01
-3.464002536366605489e-01
-3.466853591788767730e-01
-3.450307769543738967e-01
-3.415984412436511297e-01
-3.365650344917673897e-01
-3.301219873083398593e-01
-3.224754784675450958e-01
-3.138464349081186433e-01
-3.044037160769840211e-01
-2.942605349943340221e-01
-2.835596567401937884e-01
-2.724355619564119979e-01
-2.610144467319304162e-01
-2.494142226027835085e-01
-2.377445165520988279e-01
-2.261066710100968213e-01
-2.145937438540909958e-01
-2.032905084084875302e-01
-1.922734534447858856e-01
-1.816107831815781670e-01
-1.713624172845495119e-01
-1.615799908664779516e-01
-1.523068544872345498e-01
-1.435780741537833194e-01
-1.354204313201810561e-01
-1.278524228875776436e-01
-1.208842612042158038e-01
-1.145178740654312355e-01
-1.087469047136525035e-01
-1.035567118384012053e-01
-9.892436957629191507e-02
-9.481866751103201763e-02
-9.120011067342187472e-02
-8.802091954135482510e-02
-8.522503003981685143e-02
-8.274809354088757951e-02
-8.051747686373866841e-02
-7.845226227463542035e-02
-7.648999161551722770e-02
-7.468281942460514022e-02
-7.302572395623840862e-02
-7.150372822726069888e-02
-7.010246857944268939e-02
-6.880819467948179335e-02
-6.760776951900260290e-02
-6.648866941455644497e-02
-6.543898400762188095e-02
-6.444741626460392947e-02
-6.350328247683501015e-02
-6.259651226057427742e-02
-6.171764855700778707e-02
-6.085784763224860727e-02
-6.000887907733670756e-02
-5.916312580823912537e-02
-5.831358406584963294e-02
-5.745386341598901492e-02
-5.657818674940512382e-02
-5.568139028177254701e-02
-5.475892355369293973e-02
-5.380684943069491410e-02
-5.282184410323387258e-02
-5.180119708669234102e-02
-5.074281122137969113e-02
-4.964520267253214048e-02
-4.850750093031308552e-02
-4.732944880981260205e-02
-4.611140245104788926e-02
-4.485433131896304770e-02
-4.355981820342896826e-02
-4.223005921924377626e-02
-4.086786380613222081e-02
-3.947665472874611892e-02
-3.806035633074544844e-02
-3.661276865244195156e-02
-3.512735646193160255e-02
-3.360297016356794675e-02
-3.203850036613159480e-02
-3.043287788283038919e-02
-2.878507373129940428e-02
-2.709409913360083522e-02
-2.535900551622388699e-02
-2.357888451008510744e-02
-2.175286795052805422e-02
-1.988012787732373887e-02
-1.795987653466990519e-02
-1.599136637119180637e-02
-1.397389003994176093e-02
-1.190678039839909719e-02
-9.789410508470541838e-03
-7.621193636489886902e-03
-5.401583253217878688e-03
-3.130073033842772912e-03
-8.061968579797795798e-04
1.570471190328714961e-03
4.000316822613037004e-03
6.483685545976558551e-03
9.020882663095253218e-03
1.161217327221825135e-02
1.425778226716717390e-02
1.695789433733674301e-02
1.971265396769439349e-02
2.252216543878032828e-02
2.538649282670774054e-02
2.830566000316275810e-02
3.127965063540383284e-02
3.430840818626307298e-02
3.739183591414463326e-02
4.052979687302599165e-02
4.372211391245733880e-02
4.696856967756157797e-02
5.026890660903471364e-02
5.362282694314535192e-02
5.702999271173492257e-02
6.049002574221795658e-02
6.400250765758153104e-02
6.756697987638576874e-02
7.118294361276361615e-02
7.484985987642073235e-02
7.856714947263565563e-02
8.233419300225974791e-02
8.615033086171741683e-02
9.001486324300556063e-02
9.392705013369417877e-02
9.788611131692603884e-02
1.018923248744416643e-01
1.059580775672579467e-01
1.100843629962962034e-01
1.142677455908139850e-01
1.185048163959644407e-01
1.227921930727958744e-01
1.271265198982522993e-01
1.315044677651729943e-01
1.359227341822923929e-01
1.403780432742407491e-01
1.448671457815432495e-01
1.493868190606209012e-01
1.539338670837898659e-01
1.585051204392619040e-01
1.630974363311438191e-01
1.677076985794379027e-01
1.723328176200424888e-01
1.769697305047500668e-01
1.816154009012497239e-01
1.862668190931251466e-01
1.909210019798559532e-01
1.955749930768166944e-01
2.002258625152776306e-01
2.048707070424042875e-01
2.095066500212575678e-01
2.141308414307939723e-01
2.187404578658651566e-01
2.233327025372181529e-01
2.279048052714957029e-01
2.324540225112354808e-01
2.369776373148709814e-01
2.414729593567308541e-01
2.459373249270391248e-01
2.503680969319155292e-01
2.547626648933746241e-01
2.591184449493270092e-01
2.634328798535779947e-01
2.677034389758290445e-01
2.719276183016764437e-01
2.761029404326120762e-01
2.802269545860233135e-01
2.842972365951925706e-01
2.883113889092980830e-01
2.922670405934132409e-01
2.961618473285068109e-01
2.999934914114431583e-01
3.037596817549818029e-01
3.074581538877778630e-01
3.110866699543815006e-01
3.146430187152389202e-01
3.181250155466910368e-01
3.215305024409744750e-01
3.248573480062213470e-01
3.281034474664589196e-01
3.312667226616101690e-01
3.343451220474928931e-01
3.373366206958210434e-01
3.402392202942033927e-01
3.430509491461442018e-01
3.457698621710433295e-01
3.483940409041961228e-01
3.509215934967927497e-01
3.533506547159195321e-01
3.556793859445577244e-01
3.579059751815834023e-01
3.600286370417696835e-01
3.620456127557833970e-01
3.639551701701877473e-01
3.657556037474409827e-01
3.674452345658967278e-01
3.690224103198040950e-01
3.704855053193072401e-01
3.718329204904466945e-01
3.730630833751574782e-01
3.741744481312700987e-01
3.751654955325105512e-01
3.760347329685007622e-01
3.767806944447570361e-01
3.774019405826917195e-01
3.778970586196129799e-01
3.782646624087232512e-01
3.785033924191208987e-01
3.786119157358003307e-01
3.785889260596504435e-01
3.784331437074555105e-01
3.781433156118960692e-01
3.777182153215474791e-01
3.771566430008802540e-01
3.764574254302606171e-01
3.756120874233853657e-01
3.746122322253218062e-01
3.734615442100934768e-01
3.721637527492163144e-01
3.707225560672374742e-01
3.691416212417364395e-01
3.674245842033240228e-01
3.655750497356434758e-01
3.635965914753693795e-01
3.614927519122084210e-01
3.592670423888992826e-01
3.569229431012123088e-01
3.544639030979496175e-01
3.518933402809457656e-01
3.492146414050660841e-01
3.464311620782087875e-01
3.435462267613033083e-01
3.405631287683116293e-01
3.374851302662268404e-01
3.343154622750742488e-01
3.310573246679109349e-01
3.277138861708259743e-01
3.242882843629402156e-01
3.207836256764061700e-01
3.172029853964086765e-01
3.135494076611637926e-01
3.098259054619201258e-01
3.060354606429576130e-01
3.021810239015884081e-01
2.982655147881561053e-01
2.942918217060366270e-01
2.902628019116374469e-01
2.861812815143981448e-01
2.820500554767896295e-01
2.778718876143154715e-01
2.736495105955105700e-01
2.693856259419415977e-01
2.650829040282073334e-01
2.607439840819383292e-01
2.563714741837971323e-01
2.519679512674779520e-01
2.475359611197069931e-01
2.430780183802422334e-01
2.385966065418735349e-01
2.340941779504226439e-01
2.295731538047430798e-01
2.250359241567203572e-01
2.204848479112717641e-01
2.159222528263463614e-01
2.113504355129254275e-01
2.067716614350215698e-01
2.021881649096797240e-01
1.976021491069763769e-01
1.930157860500198996e-01
1.884312166149508805e-01
1.838505505309412369e-01
1.792758663801949925e-01
1.747092115979481664e-01
1.701526024724685504e-01
1.656080241450553769e-01
1.610774306100406505e-01
1.565627447147871498e-01
1.520658581596906478e-01
1.475886314981776914e-01
1.431328941367073782e-01
1.387004443347704674e-01
1.342930492048894919e-01
1.299124447126189796e-01
1.255603356765454537e-01
1.212383957682866553e-01
1.169482675124929871e-01
1.126915622868462918e-01
1.084698603220602964e-01
1.042847107018806119e-01
1.001376313630847337e-01
9.603010909548193030e-02
9.196359954191357655e-02
8.793952719825254283e-02
8.395928541340391682e-02
8.002423638930439287e-02
7.613571118092260503e-02
7.229500969625912710e-02
6.850340069634619500e-02
6.476212179524792889e-02
6.107237946006055518e-02
5.743534901091207345e-02
5.385217462096225649e-02
5.032396931640237270e-02
4.685181497645640736e-02
4.343676233337945281e-02
4.007983097245881865e-02
3.678200933201364320e-02
3.354425470339467141e-02
3.036749323098481002e-02
2.725261991219879443e-02
2.420049859748307775e-02
2.121196199031594176e-02
1.828781164720777452e-02
1.542881797770057073e-02
1.263572024436832031e-02
9.909226562816619843e-03
7.249931920352503667e-03
4.657350200531429341e-03
2.130432146159599860e-03
-3.318468066469959510e-04
-2.730503368489733962e-03
-5.066546396688242915e-03
-7.340976895279460734e-03
-9.554788015018078617e-03
-1.170896505337670757e-02
-1.380448545454560083e-02
-1.584231880943254289e-02
-1.782342685566346008e-02
-1.974876347758147688e-02
-2.161927470624797065e-02
-2.343589871944157244e-02
-2.519956584165899960e-02
-2.691119854411444523e-02
-2.857171144473996671e-02
-3.018201130818531919e-02
-3.174299704581801107e-02
-3.325555971572297098e-02
-3.472058252270332490e-02
-3.613894081827973004e-02
-3.751150210069037483e-02
-3.883912601489136751e-02
-4.012266435255662511e-02
-4.136296105207748486e-02
-4.256085219856337032e-02
-4.371716602384101424e-02
-4.483272290645540226e-02
-4.590833537166866263e-02
-4.694480809146100997e-02
-4.794293788453046767e-02
-4.890351371629236832e-02
-4.982731669888013082e-02
-5.071512009114470532e-02
-5.156768929865496176e-02
-5.238578187369724581e-02
-5.317014751527576744e-02
-5.392152806911254537e-02
-5.464065752764701855e-02
-5.532826203003676779e-02
-5.598505986215662755e-02
-5.661176145659962966e-02
-5.720906939267617064e-02
-5.777767839641451131e-02
-5.831827534056072126e-02
-5.883153924457834583e-02
-5.931814127464885011e-02
-5.977874474367150803e-02
-6.021400511126290267e-02
-6.062456998375786998e-02
-6.101107911420866614e-02
-6.137416440238518955e-02
-6.171444989477536947e-02
-6.203255178458461083e-02
-6.232907841173601637e-02
-6.260463026287060861e-02
-6.285979997134705233e-02
-6.309517231724171005e-02
-6.331132422734858656e-02
-6.350882477517955094e-02
-6.368823518096411451e-02
-6.385010881164959740e-02
-6.399499118090085092e-02
-6.412341994910081278e-02
-6.423592492334956328e-02
-6.433302805746560216e-02
-6.441524345198457180e-02
-6.448307735416020092e-02
-6.453702815796369396e-02
-6.457758640408406414e-02
-6.460523477992824448e-02
-6.462044811962058821e-02
-6.462369340400336837e-02
-6.461542976063650023e-02
-6.459610846379759685e-02
-6.456617293448208006e-02
-6.452605874040295841e-02
-6.447619359599116029e-02
-6.441699736239525631e-02
-6.434888204748134832e-02
-6.427225180583356900e-02
-6.418750293875363777e-02
-6.409502389426086078e-02
-6.399519526709257500e-02
-6.388838979870348211e-02
-6.377497237726631463e-02
-6.365530003767128076e-02
-6.352972196152656403e-02
-6.339857947715776820e-02
-6.326220605960858334e-02
-6.312092733064011973e-02
-6.297506105873135196e-02
-6.282491715907884133e-02
-6.267079769359706898e-02
-6.251299687091821378e-02
-6.235180104639193033e-02
-6.218748872208584855e-02
-6.202033054678535162e-02
-6.185058931599324294e-02
-6.167851706930965738e-02
-6.150354334810714807e-02
-6.132520714449801735e-02
-6.114365871107113604e-02
-6.095904513300443028e-02
-6.077151032806499265e-02
-6.058119504660958166e-02
-6.038823687158384468e-02
-6.019277021852292853e-02
-5.999492633555092436e-02
-5.979483330338153380e-02
-5.959261603531745832e-02
-5.938839627725084336e-02
-5.918229260766294519e-02
-5.897442043762451958e-02
-5.876489201079521107e-02
-5.855381640342410821e-02
-5.834129952434979893e-02
-5.812744411499981556e-02
-5.791234974939091229e-02
-5.769611283412934277e-02
-5.747882660841052704e-02
-5.726058114401905152e-02
-5.704146334532889107e-02
-5.682155694930324241e-02
-5.660094252549446869e-02
-5.637969747604432147e-02
-5.615789603568377419e-02
-5.593560927173302222e-02
-5.571290508410153830e-02
-5.548984820528812811e-02
-5.526650020038065270e-02
-5.504291946705647254e-02
-5.481916123558217002e-02
-5.459527756881327187e-02
-5.437131736219502631e-02
-5.414732634376173692e-02
-5.392334707413681816e-02
-5.369941894653318393e-02
-5.347557818675291452e-02
-5.325185785318731213e-02
-5.302828783681695635e-02
-5.280489486121170417e-02
-5.258170248253063450e-02
-5.235873108952221466e-02
-5.213599790352402286e-02
-5.191351697846291469e-02
-5.169129920085507868e-02
-5.146935228980592525e-02
-5.124768079701008672e-02
-5.102628610675152832e-02
-5.080516643590332615e-02
-5.058431683392811129e-02
-5.036372918287751466e-02
-5.014339219739244458e-02
-4.992329142470319781e-02
-4.970340924462918197e-02
-4.948372486957924865e-02
-4.926421434455136028e-02
-4.904485054713264569e-02
-4.882560318749984418e-02
-4.860643880841858389e-02
-4.838732078524399238e-02
-4.816820932592030813e-02
-4.794906147098110250e-02
-4.772983109354922426e-02
-4.751046889933679962e-02
-4.729092242664501011e-02
-4.707113604636464776e-02
-4.685105096197533792e-02
-4.663060520954648291e-02
-4.640973365773620740e-02
-4.618836800779224649e-02
-4.596643679355155721e-02
-4.574386538144026293e-02
-4.552057597047359794e-02
-4.529648759225651800e-02
-4.507151611098281219e-02
-4.484557422343565802e-02
-4.461857145898751043e-02
-4.439041417960015723e-02
-4.416100557982449715e-02
-4.393024568680081732e-02
-4.369803136025857127e-02
-4.346425629251648992e-02
-4.322881100848263713e-02
-4.299158286565418763e-02
-4.275245605411781558e-02
-4.251131159654919500e-02
-4.226802734821333285e-02
-4.202247799696468000e-02
-4.177453506324668719e-02
-4.152406690009230461e-02
-4.127093869312348229e-02
-4.101501246055155869e-02
-4.075614705317726072e-02
-4.049419815439042614e-02
-4.022901828017011461e-02
-3.996045677908466320e-02
-3.968835983229185294e-02
-3.941257045353857569e-02
-3.913292848916077871e-02
-3.884927061808413074e-02
-3.856143035182324486e-02
-3.826923803448201156e-02
-3.797252084275359874e-02
-3.767269415321755632e-02
-3.737728366734538454e-02
-3.708553146872295425e-02
-3.679539168390022486e-02
-3.650483902084478149e-02
-3.621186876894205708e-02
-3.591449679899538783e-02
-3.561075956322573566e-02
-3.529871409527191028e-02
-3.497643801019068022e-02
-3.464202950445632867e-02
-3.429360735596115317e-02
-3.392931092401524351e-02
-3.354730014934637072e-02
-3.314575555410020913e-02
-3.272287824184016980e-02
-3.227688989754728954e-02
-3.180603278762089703e-02
-3.130856975987755808e-02
-3.078278424355201937e-02
-3.022698024929665328e-02
-2.963948236918168000e-02
-2.901863577669500094e-02
-2.836280622674247631e-02
-2.767038005564781411e-02
-2.693976418115218152e-02
-2.616938610241503760e-02
-2.535769390001313406e-02
-2.450315623594134795e-02
-2.360426235361223757e-02
-2.265952207785632000e-02
-2.166746581492151602e-02
-2.062664455247398276e-02
-1.953562985959744758e-02
-1.839301388679348559e-02
-1.719740936598135317e-02
-1.594744961049848753e-02
-1.464178851509945201e-02
-1.327910055595732386e-02
-1.185808079066258403e-02
-1.037744485822339469e-02
-8.835928979066209887e-03
-7.232289955034720830e-03
-5.565305169390688533e-03
-3.833772586813777306e-03
-2.036510753401277185e-03
-1.723587966682149641e-04
1.759823574452312744e-03
3.761156069609694619e-03
5.832737817035416050e-03
7.975647363543114654e-03
1.019094267452858027e-02
1.247966113397008803e-02
1.484281954442784324e-02
1.728141412704436997e-02
1.979642052154417797e-02
2.238879378623448435e-02
2.505946839800415882e-02
2.780935825232455638e-02
3.063935666324935081e-02
3.355033636341392400e-02
3.654314950403636519e-02
3.961862765491686034e-02
4.277758180443774760e-02
4.602080235956340637e-02
4.934905914584053477e-02
5.276310140739820520e-02
5.626365780694747576e-02
5.985143642578172329e-02
6.352712476377636586e-02
6.729138973938925128e-02
7.114487768966049064e-02
7.508821437021184764e-02
7.912200495524795985e-02
8.325047713132560645e-02
8.748395012235105073e-02
9.181444425129814402e-02
9.623243090764427299e-02
1.007285275790485990e-01
1.052934978513530018e-01
1.099182514085806917e-01
1.145938440329374863e-01
1.193114776048109782e-01
1.240625001027707563e-01
1.288384056035688507e-01
1.336308342821390660e-01
1.384315724115969815e-01
1.432325523632408393e-01
1.480258526065505453e-01
1.528036977091882243e-01
1.575584583369977754e-01
1.622826512540056498e-01
1.669689393224198515e-01
1.716101315026308249e-01
1.761991828532107895e-01
1.807291945309140724e-01
1.851934137906774414e-01
1.895852339856191060e-01
1.938981945670397167e-01
1.981259810844218094e-01
2.022624251854302502e-01
2.063015046159115684e-01
2.102373432198946235e-01
2.140642109395903825e-01
2.177765238153914762e-01
2.213688439858733092e-01
2.248358796877922838e-01
2.281724852560880201e-01
2.313736611238812468e-01
2.344345538224753556e-01
2.373504559813554016e-01
2.401168063281891030e-01
2.427291896888253975e-01
2.451833369872956636e-01
2.474751252458137207e-01
2.496005775847748298e-01
2.515558632227564706e-01
2.533372974765185637e-01
2.549413417610025823e-01
2.563646035893324404e-01
2.576038365728136048e-01
2.586559404209343160e-01
2.595179609413643673e-01
2.601870900399555486e-01
2.606606657207422018e-01
2.609361720859399991e-01
2.610112393359473870e-01
2.608836437693443644e-01
2.605513077828935931e-01
2.600122998715387324e-01
2.592648346284067706e-01
2.583072727448056938e-01
2.571381210102261505e-01
2.557560323123405643e-01
2.541598056370037995e-01
2.523450987810699209e-01
2.503139372892374537e-01
2.480766008500256969e-01
2.456432194208920672e-01
2.430237527201516423e-01
2.402279902269777168e-01
2.372655511814009133e-01
2.341458845843107373e-01
2.308782691974526902e-01
2.274718135434321553e-01
2.239354559057109562e-01
2.202779643286095768e-01
2.165079366173059405e-01
2.126338003378361874e-01
2.086638128170940076e-01
2.046060611428310860e-01
2.004684621636568798e-01
1.962587624890387294e-01
1.919845384893018592e-01
1.876531962956295985e-01
1.832719718000626052e-01
1.788479306554997539e-01
1.743879682756978022e-01
1.698988098352711695e-01
1.653870102696923805e-01
1.608589542752915102e-01
1.563208563092568504e-01
1.517787605896341319e-01
1.472385410953274132e-01
1.427059015660981922e-01
1.381863755025660723e-01
1.336853261662085401e-01
1.292079465793606330e-01
1.247592595252157155e-01
1.203441175478247027e-01
1.159672029520961711e-01
1.116330278037971357e-01
1.073459339295521620e-01
1.031100929168433655e-01
9.892950611401118977e-02
9.480800463025379488e-02
9.074924933562705798e-02
8.675673086104512821e-02
8.283376959827942754e-02
7.898351569995942789e-02
7.520894907957281772e-02
7.151287941146478033e-02
6.789794613083843799e-02
6.436661843375485192e-02
6.092119527713280025e-02
5.756380537874911107e-02
5.429640721723832941e-02
5.112078903209282821e-02
4.803856882366286385e-02
4.505119435315685372e-02
4.215994314264054355e-02
3.936592247503789554e-02
3.667006939413064437e-02
3.407315070455857464e-02
3.157576297181879932e-02
2.917746356228401172e-02
2.686220352322643556e-02
2.462613377327288466e-02
2.247164292113545958e-02
2.040035538052692443e-02
1.841313137016087342e-02
1.651006691375184188e-02
1.469049384001486214e-02
1.295297978266618522e-02
1.129532818042272568e-02
9.714578277002117179e-03
8.207005121122823432e-03
6.768119566504360307e-03
5.392668271866685181e-03
4.074633700930863078e-03
2.807234122418678091e-03
1.582923610052688890e-03
3.933920425562842382e-04
-7.704348963462059885e-04
-1.918395717929843869e-03
-3.061093128468639346e-03
-4.209894029236105339e-03
-5.376929516504536100e-03
-6.575094881545673342e-03
-7.818049610630539714e-03
-9.120217385029105728e-03
-1.049678608101051180e-02
-1.196370776984329032e-02
-1.353769871779503253e-02
-1.523623938613249962e-02
-1.707757443112178919e-02
-1.908071270402789121e-02
-2.126542725111524312e-02
-2.365225531364739675e-02
-2.626249832788707383e-02
-2.911822192509611051e-02
-3.224225593153562386e-02
-3.565819436846590085e-02
-3.939039545214628735e-02
-4.346398159383557669e-02
-4.790483939979145456e-02
-5.273961967127099859e-02
-5.799812711821444866e-02
-6.371872081421942058e-02
-6.986190225095267881e-02
-7.636724735070476999e-02
-8.317124066903958113e-02
-9.020727539479472812e-02
-9.740565335008094516e-02
-1.046935849902828064e-01
-1.119951894040580598e-01
-1.192314943133381266e-01
-1.263204360733278797e-01
-1.331768596725055875e-01
-1.397125187326230256e-01
-1.458360755087055871e-01
-1.514531008890520059e-01
-1.564660743952344113e-01
-1.607743841820985509e-01
-1.642743270377637343e-01
-1.668591083836225286e-01
-1.684188422743411184e-01
-1.688405513978591121e-01
-1.680081670753897083e-01
-1.658025292614194179e-01
-1.621013865437083423e-01
-1.567793961432899785e-01
-1.497081239144714138e-01
-1.407560443448330756e-01
-1.297885405552290927e-01
-1.166679042997867954e-01
-1.012533359659072429e-01
-8.340821834246164856e-02
-6.316466771193685048e-02
-4.049617497496654783e-02
-1.533672032814092923e-02
1.235206526406895655e-02
4.258090006932463423e-02
7.533285158740138376e-02
1.105633365502002308e-01
1.482001209217450599e-01
1.881433198981827815e-01
2.302653979077827762e-01
2.744111686109379500e-01
3.203977949001636238e-01
3.680147889000978667e-01
4.170240119675022727e-01
4.671596746912606291e-01
5.181283368923799149e-01
5.696089076239898574e-01
6.212526451713432651e-01
6.726831570518158054e-01
7.234964000149058938e-01
7.732606800422346938e-01
8.215166523475464500e-01
8.677773213767082661e-01
9.115280408077098828e-01
9.522265135506645661e-01
9.893027917478079969e-01
1.022159276773498604e+00
1.050171353781210293e+00
1.072879071537279572e+00
1.090186888603120074e+00
1.102065089298032596e+00
1.108514057607193681e+00
1.109564277181658287e+00
1.105276331338358009e+00
1.095740903060100635e+00
1.081078774995571923e+00
1.061440829459334712e+00
1.037008048431828477e+00
1.007991513559369778e+00
9.746324061541523642e-01
9.372020071942467334e-01
8.960016973236016868e-01
8.513629568520412194e-01
8.036473657552672956e-01
7.532466036748594052e-01
7.005824499182730092e-01
6.461067834588422043e-01
5.903015829357759481e-01
5.336789266541619448e-01
4.767809925849646469e-01
4.201800583650254772e-01
3.644785012970624960e-01
3.103087983496710667e-01
2.582212822354597037e-01
2.080796727855277473e-01
1.599722781033370289e-01
1.140473563124796419e-01
7.043685895524587348e-02
2.925643099262359437e-02
-9.394589195700742135e-03
-4.543316981134265520e-02
-7.879258563721974751e-02
-1.094224180375515387e-01
-1.372885549578592990e-01
-1.623731909249663263e-01
-1.846748270469976416e-01
-2.042082710133805157e-01
-2.210046370948440253e-01
-2.351113461434186369e-01
-2.465921255924374000e-01
-2.555270094565351702e-01
-2.620123383316483312e-01
-2.661607593950153783e-01
-2.681012264051771954e-01
-2.679789997019756953e-01
-2.659556462065550964e-01
-2.622090394213617559e-01
-2.569333594301440038e-01
-2.503390928979513097e-01
-2.426146280174267811e-01
-2.338468183873121664e-01
-2.242009915949201015e-01
-2.138411962375492970e-01
-2.029219322872923281e-01
-1.915881510910358021e-01
-1.799752553704602187e-01
-1.682090992220400261e-01
-1.564059881170437316e-01
-1.446726789015337356e-01
-1.331063797963663031e-01
-1.217947503971918422e-01
-1.108159016744546532e-01
-1.002383959733929020e-01
-9.012124701403878557e-02
-8.051391989121853277e-02
-7.145633107455212629e-02
-6.297884840845380250e-02
-5.510229111213149622e-02
-4.783792977958706283e-02
-4.118748637961677783e-02
-3.514313425581028216e-02
-2.968749812655147036e-02
-2.479365408501832402e-02
-2.042512959918246773e-02
-1.653590351180966866e-02
-1.307040604045955901e-02
-9.963518777486024547e-03
-7.140574690036538552e-03
-4.521553317678672634e-03
-2.118516664992797782e-03
6.302731358565072384e-05
2.043632828526764644e-03
3.843009541590391986e-03
5.480022565825248826e-03
6.972692465569529929e-03
8.338195256450686710e-03
9.592862405385538249e-03
1.075218083058004925e-02
1.183079290152971863e-02
1.284249643901913540e-02
1.380024471512236728e-02
1.471614645320257209e-02
1.560146582791244185e-02
1.646662246519359218e-02
1.732119144227739493e-02
1.817390328768431207e-02
1.903264398122411771e-02
1.990445495399578713e-02
2.079553308838771875e-02
2.171123071807751215e-02
2.265605562803213457e-02
2.363367105450786543e-02
2.464689568505046280e-02
2.569770365849444183e-02
2.678722456496424043e-02
2.791574344587310907e-02
2.908270079392399898e-02
3.028669255310872943e-02
3.152547011870882043e-02
3.279594033729488212e-02
3.409416550672678126e-02
3.541536337615391883e-02
3.675652545925789383e-02
3.813067201263636852e-02
3.954145313651385996e-02
4.098991911904292795e-02
4.247708903819935600e-02
4.400395076178215126e-02
4.557146094741360010e-02
4.718054504253893500e-02
4.883209728442666764e-02
5.052698070016881093e-02
5.226602710668004637e-02
5.405003711069850114e-02
5.587978010878569268e-02
5.775599428732597351e-02
5.967938662252714188e-02
6.165063288041994216e-02
6.367037761685867547e-02
6.573923417752036702e-02
6.785778469790570977e-02
7.002658010333823180e-02
7.224614010896479588e-02
7.451695321975548847e-02
7.683947673050339766e-02
7.921413672582511278e-02
8.164132808016005827e-02
8.412141445777121529e-02
8.665472831274456667e-02
8.924157088898909684e-02
9.188221222023740253e-02
9.457689113004502657e-02
9.732581523179012484e-02
1.001291609286757422e-01
1.029870734137257049e-01
1.058996666697896716e-01
1.088670234695379158e-01
1.118891953754663771e-01
1.149662027398915543e-01
1.180980347049560564e-01
1.212846492026226075e-01
1.245259729546800420e-01
1.278219014727378644e-01
1.311722990582310233e-01
1.345769988024153596e-01
1.380358025863724913e-01
1.415484810810041516e-01
1.451203658395170404e-01
1.487587360529043501e-01
1.524614411469948916e-01
1.562262199371372562e-01
1.600508077853179945e-01
1.639329366001545107e-01
1.678703348369028348e-01
1.718607274974497390e-01
1.759018361303190670e-01
1.799913788306698459e-01
1.841270702402924009e-01
1.883066215476156824e-01
1.925277404876993836e-01
1.967881313422414902e-01
2.010854949395708413e-01
2.054175286546547907e-01
2.097819264090914348e-01
2.141763786711170514e-01
2.185985724555991050e-01
2.230461913240431304e-01
2.275169153845856274e-01
2.320084212920013877e-01
2.365183822476960573e-01
2.410444679997137962e-01
2.455843448427291742e-01
2.501356756180557195e-01
2.546961197136371480e-01
2.592633330640562450e-01
2.638349681505258726e-01
2.684086740008980732e-01
2.729820961896546327e-01
2.775528768379169620e-01
2.821186546134363260e-01
2.866770647306030595e-01
2.912257389504375737e-01
2.957623055805991275e-01
3.002843894753779441e-01
3.047896120357023175e-01
3.092755912091312842e-01
3.137399414898625061e-01
3.181802739187244988e-01
3.225941960831838484e-01
3.269793121173384387e-01
3.313332227019238907e-01
3.356535250643069013e-01
3.399378129784931257e-01
3.441836767651179629e-01
3.483887032914562143e-01
3.525504759714127578e-01
3.566665747655312080e-01
3.607345761809859219e-01
3.647520532715897712e-01
3.687165756377860371e-01
3.726257094266568481e-01
3.764770173319148538e-01
3.802680585939112179e-01
3.839963889996279578e-01
3.876595608826850503e-01
3.912551231233341031e-01
3.947806211484640171e-01
3.982335969315958790e-01
4.016115889928875138e-01
4.049121323991293764e-01
4.081327587637485488e-01
4.112709962468042990e-01
4.143243695549931882e-01
4.172903999416437415e-01
4.201666052067216661e-01
4.229504996968244113e-01
4.256395943051871633e-01
4.282313964716766286e-01
4.307234101827970285e-01
4.331131359716842155e-01
4.353980709181114461e-01
4.375757086484842739e-01
4.396435393358447685e-01
4.415990496998678516e-01
4.434397230068648499e-01
4.451630390697794981e-01
4.467664742481926021e-01
4.482475014483171538e-01
4.496035901230027720e-01
4.508322062717322609e-01
4.519308124406238303e-01
4.528968677224299855e-01
4.537278277565376383e-01
4.544211447289687733e-01
4.549742664569168538e-01
4.553822883757918660e-01
4.556434223049191656e-01
4.557594900856867248e-01
4.557323278793138366e-01
4.555637861668514477e-01
4.552557297491817145e-01
4.548100377470180034e-01
4.542286036009053340e-01
4.535133350712198252e-01
4.526661542381686942e-01
4.516889975017917003e-01
4.505838155819581470e-01
4.493525735183705461e-01
4.479972506705611757e-01
4.465198407178949669e-01
4.449223516595670613e-01
4.432068058146052536e-01
4.413752398218673267e-01
4.394297046400434947e-01
4.373722655476544041e-01
4.352050021430532434e-01
4.329300083444230784e-01
4.305493923897801833e-01
4.280652768369698213e-01
4.254797985636713520e-01
4.227951087673927910e-01
4.200133729654759174e-01
4.171367709950916103e-01
4.141674970132442901e-01
4.111077594967678106e-01
4.079597812423293446e-01
4.047257993664247211e-01
4.014080653053845316e-01
3.980088448153673575e-01
3.945304179723659876e-01
3.909750791722023111e-01
3.873451371305318691e-01
3.836429148828383040e-01
3.798707497844406866e-01
3.760309935104855228e-01
3.721260120559539697e-01
3.681581857356556187e-01
3.641299091842346014e-01
3.600435913561625956e-01
3.559016555257467074e-01
3.517065392871215890e-01
3.474606945542568770e-01
3.431665875609499761e-01
3.388266988608330532e-01
3.344435233273672647e-01
3.300195701538448656e-01
3.255573628533923181e-01
3.210594392589638524e-01
3.165283515233485723e-01
3.119666661191631274e-01
3.073769638388597070e-01
3.027618397947177131e-01
2.981239034188518655e-01
2.934657784632042077e-01
2.887901029995523228e-01
2.840995294195008958e-01
2.793967244344904843e-01
2.746843690757880818e-01
2.699651586944971093e-01
2.652418029615474238e-01
2.605170258677050876e-01
2.557935657235627103e-01
2.510741751595488847e-01
2.463616211259191946e-01
2.416586848927645415e-01
2.369681620500037056e-01
2.322928625073902298e-01
2.276356104945052028e-01
2.229992445607652529e-01
2.183866175754141103e-01
2.138005967275312669e-01
2.092440635260229831e-01
2.047199137996310592e-01
2.002310576969251743e-01
1.957804196863098811e-01
1.913709385560169451e-01
1.870055674141138935e-01
1.826872736884954662e-01
1.784190391268916098e-01
1.742038597968600389e-01
1.700447460857930082e-01
1.659447227009114290e-01
1.619067260239294148e-01
1.579277612066614100e-01
1.540053964351880689e-01
1.501399444106316095e-01
1.463316954208465637e-01
1.425809173404134489e-01
1.388878556306447631e-01
1.352527333395789899e-01
1.316757511019865934e-01
1.281570871393642452e-01
1.246968972599404868e-01
1.212953148586697338e-01
1.179524509172388269e-01
1.146683940040604810e-01
1.114432102742791697e-01
1.082769434697655742e-01
1.051696149191223562e-01
1.021212235376782740e-01
9.913174582749406660e-02
9.620113587735645844e-02
9.332932536278421010e-02
9.051622354602223419e-02
8.776171727604709094e-02
8.506567098856188114e-02
8.242792670600124216e-02
7.984830403752612993e-02
7.732660017902931449e-02
7.486258991312988442e-02
7.245602560917852042e-02
7.010663722325244374e-02
6.781413229816019017e-02
6.557819596343733570e-02
6.339849093535016022e-02
6.127465751689242790e-02
5.920631359778855130e-02
5.719305465449003867e-02
5.523445375017943526e-02
5.333006153476649303e-02
5.147940624489172334e-02
4.968199370392273329e-02
4.793730732195816691e-02
4.624480809582381946e-02
4.460393460907613461e-02
4.301410303199909579e-02
4.147470712160716833e-02
3.998511822164235729e-02
3.854468526257714966e-02
3.715273476161157218e-02
3.580857082267618896e-02
3.451147513642904840e-02
3.326070698025879180e-02
3.205550321828148919e-02
3.089507830134369248e-02
2.977862426701977094e-02
2.870531073961413160e-02
2.767428493015916535e-02
2.668467163641730089e-02
2.573557324287911729e-02
2.482606972076500940e-02
2.395521862802363344e-02
2.312205510933323938e-02
2.232559189610078265e-02
2.156481930646236833e-02
2.083870524528302903e-02
2.014619520415694698e-02
1.948621226140712093e-02
1.885765708208575475e-02
1.825940791797397988e-02
1.769032060758224389e-02
1.714922857614936680e-02
1.663494283564387333e-02
1.614625198476271617e-02
1.568192220893227518e-02
1.524069728030791326e-02
1.482129855777386540e-02
1.442242498694334962e-02
1.404275310015895561e-02
1.368215446779186273e-02
1.334251397785346516e-02
1.302334194214410656e-02
1.272404648755742773e-02
1.244404488550004961e-02
1.218276355189185090e-02
1.193963804716557942e-02
1.171411307626729625e-02
1.150564248865604267e-02
1.131368927830389559e-02
1.113772558369607868e-02
1.097723268783079575e-02
1.083170101821967490e-02
1.070063014688688030e-02
1.058352879037022243e-02
1.047991480972015887e-02
1.038931521050062701e-02
1.031126614278832232e-02
1.024531290117308702e-02
1.019100992475807654e-02
1.014792079715914896e-02
1.011561824650553110e-02
1.009368414543959647e-02
1.008170951111658775e-02
1.007929450520500536e-02
1.008604843388621886e-02
1.010158974785485553e-02
1.012554604231863387e-02
1.015755405699830805e-02
1.019725967612772344e-02
1.024431792845387212e-02
1.029839298723667085e-02
1.035915817024929408e-02
1.042629593977784097e-02
1.049949790262177940e-02
1.057846481009333539e-02
1.066290655801788168e-02
1.075254218673415973e-02
1.084709988109366918e-02
1.094631697046122287e-02
1.104993992871444730e-02
1.115772437424439323e-02
1.126943506995492505e-02
1.138484592326310940e-02
1.150373998609915960e-02
1.162590945490621364e-02
1.175115567064066724e-02
1.187928911877189631e-02
1.201012942928231242e-02
1.214350537666764041e-02
1.227925487993636322e-02
1.241722500261027706e-02
1.255727195272432484e-02
1.269926108282631860e-02
1.284306688997727264e-02
1.298857301575123691e-02
1.313567224623551910e-02
1.328426651203029607e-02
1.343426688824883586e-02
1.358559359451777526e-02
1.373817599497634268e-02
1.389195259827746831e-02
1.404687105758661847e-02
1.420288817058262820e-02
1.435996987945742376e-02
1.451809127091585605e-02
1.467723657617603372e-02
1.483739917096904559e-02
1.499858157553912719e-02
1.516079545464354972e-02
1.532406161755273111e-02
1.548841001805012496e-02
1.565387975443216506e-02
1.582052471432532359e-02
1.598866031855161740e-02
1.615832610282152970e-02
1.632936301465548468e-02
1.650161767958918668e-02
1.667494240117323168e-02
1.684919516097388437e-02
1.702423961857191248e-02
1.719994511156380801e-02
1.737618665556084352e-02
1.755284494418968277e-02
1.772980634909177011e-02
1.790696291992438516e-02
1.808421238435919953e-02
1.826145814808360912e-02
1.843860929479973487e-02
1.861558058622514444e-02
1.879229246209251913e-02
1.896867104014954286e-02
1.914464811615929074e-02
1.932016116389967397e-02
1.949515333516393945e-02
1.966957345976055871e-02
1.984337604551311696e-02
2.001652127826020200e-02
2.018897502185573734e-02
2.036070881816876010e-02
2.053169988708325455e-02
2.070193112649865164e-02
2.087139111232944044e-02
2.104007409850511268e-02
2.120798001697060675e-02
2.137511447768564166e-02
2.154148876862543860e-02
2.170711985578022141e-02
2.187203038315521653e-02
2.203624867277109711e-02
2.219980872466348343e-02
2.236275021688327591e-02
2.252511850549637762e-02
2.268696462458397178e-02
2.284834528624235528e-02
2.300932288058299413e-02
2.316996547573235699e-02
2.333034681783241471e-02
2.349054633103991874e-02
2.365064911752695620e-02
2.381074595748078337e-02
2.397093330910371467e-02
2.413131330861323365e-02
2.429199377024204853e-02
2.445308818623803671e-02
2.461471572686413367e-02
2.477700124039827756e-02
2.494007525313413076e-02
2.510407396937980318e-02
2.526913927145907346e-02
2.543541871971055635e-02
2.560306555248814675e-02
2.577223868616096425e-02
2.594310271511324206e-02
2.611582791174416052e-02
2.629059022646840216e-02
2.646757128771543011e-02
2.664695840193026521e-02
2.682894455357270891e-02
2.701372840511795381e-02
2.720151429705625068e-02
2.739251224789307493e-02
2.758693795414890459e-02
2.778501279035938687e-02
2.798696380907561565e-02
2.819302374086346541e-02
2.840343099430420182e-02
2.861842965599403765e-02
2.883826949054479893e-02
2.906320594058259266e-02
2.929350012674969417e-02
2.952941884770277081e-02
2.977123458011399215e-02
3.001922547867069690e-02
3.027367537607511538e-02
3.053487378304503563e-02
3.080311588831297076e-02
3.107870255862688058e-02
3.135964571448757177e-02
3.164300555215743271e-02
3.193067235177571295e-02
3.222461793886688408e-02
3.252679848064310431e-02
3.283915448600394082e-02
3.316361080553681395e-02
3.350207663151649751e-02
3.385644549790550739e-02
3.422859528035371302e-02
3.462038819619889241e-02
3.503367080446606607e-02
3.547027400586821866e-02
3.593201304280541075e-02
3.642068749936594463e-02
3.693808130132497647e-02
3.748596271614584863e-02
3.806608435297914594e-02
3.868018316266319534e-02
3.932998043772367724e-02
4.001718181237429173e-02
4.074347726251570379e-02
4.151054110573698663e-02
4.232003200131378984e-02
4.317359295021039323e-02
4.407285129507754196e-02
4.501941872025483349e-02
4.601489125176810857e-02
4.706084925733211577e-02
4.815885744634795795e-02
4.931046486990536826e-02
5.051720492078076719e-02
5.178059533343887244e-02
5.310213818403142216e-02
5.448331989039850720e-02
5.592561121206651720e-02
5.743046725025102717e-02
5.899932744785357785e-02
6.063361558946495089e-02
6.233473980136178261e-02
6.410409255150989472e-02
6.594305064956129669e-02
6.785297524685701687e-02
6.983521183642382724e-02
7.189109025297835132e-02
7.402192467292251221e-02
7.622901361434764045e-02
7.851363993703130983e-02
8.087707084244005751e-02
8.332055787372616429e-02
8.584533691573165148e-02
8.845262819498383999e-02
9.114363627970001325e-02
9.391955007978264325e-02
9.678154284682416453e-02
9.973077217410220019e-02
1.027683799965842804e-01
1.058954925909232347e-01
1.091132205754619111e-01
1.124226589102282903e-01
1.158248868969401491e-01
1.193209681790006194e-01
1.229119507415030732e-01
1.266026477296936514e-01
1.304113069068540964e-01
1.343330635459087929e-01
1.383595827096362196e-01
1.424826220002184396e-01
1.466940315592492050e-01
1.509857540677266297e-01
1.553498247460597392e-01
1.597783713540621431e-01
1.642636141909586955e-01
1.687978660953782795e-01
1.733735324453615778e-01
1.779831111583527470e-01
1.826191926912080765e-01
1.872744600401874404e-01
1.919416887409625128e-01
1.966137468686088852e-01
2.012835950376137273e-01
2.059442864018682373e-01
2.105889666546749694e-01
2.152108740287407285e-01
2.198033392961838972e-01
2.243597857685264430e-01
2.288737292967024661e-01
2.333387782710497627e-01
2.377486336213175955e-01
2.420970888166592561e-01
2.463780298656400580e-01
2.505854353162284553e-01
2.547133762558052572e-01
2.587560163111549683e-01
2.627076116484734492e-01
2.665625109733609222e-01
2.703151555308288545e-01
2.739600791052929640e-01
2.774919080205802135e-01
2.809053611399221495e-01
2.841952498659611193e-01
2.873564781407440538e-01
2.903840424457290181e-01
2.932730318017787718e-01
2.960186277691663204e-01
2.986161044475704740e-01
3.010608284760796227e-01
3.033482590331882944e-01
3.054739478368002636e-01
3.074335391442255538e-01
3.092227697521829910e-01
3.108374689967997595e-01
3.122735587536090707e-01
3.135270534375536045e-01
3.145940600029822898e-01
3.154707779436534132e-01
3.161534992927316212e-01
3.166386086227904739e-01
3.169225830458106685e-01
3.170019922131805945e-01
3.168734983156968887e-01
3.165338560835635473e-01
3.159799127863928137e-01
3.152086082332040684e-01
3.142169747724252726e-01
3.130021372918910805e-01
3.115607870768298815e-01
3.098774425979126113e-01
3.079547353876174176e-01
3.058043784231181395e-01
3.034378733827655106e-01
3.008665106460827188e-01
2.981013692937708459e-01
2.951533171077032058e-01
2.920330105709307844e-01
2.887508948676769105e-01
2.853172038833426960e-01
2.817419602045015958e-01
2.780349751189047369e-01
2.742058486154753671e-01
2.702639693843148505e-01
2.662185148166963389e-01
2.620784510050714333e-01
2.578525327430631897e-01
2.535493035254734462e-01
2.491770955482751626e-01
2.447440297086201921e-01
2.402580156048315096e-01
2.357267515364108723e-01
2.311577245040314921e-01
2.265582102095453632e-01
2.219352730559753795e-01
2.172957661475237723e-01
2.126463312895635616e-01
2.079933989886466605e-01
2.033431884524964373e-01
1.987017075900147089e-01
1.940747530112747476e-01
1.894679100275289407e-01
1.848865526512002422e-01
1.803358435958908323e-01
1.758207342763741243e-01
1.713459648086022025e-01
1.669160640096984949e-01
1.625353493979651009e-01
1.582079271928754638e-01
1.539376923150819199e-01
1.497283283864077053e-01
1.455833077298551714e-01
1.415058913695980136e-01
1.374991290309881542e-01
1.335658591405496365e-01
1.297087088259841758e-01
1.259300939161660526e-01
1.222322189411469973e-01
1.186170771321511941e-01
1.150864504215804995e-01
1.116419094430091130e-01
1.082848135311890170e-01
1.050163107220444259e-01
1.018373377526773371e-01
9.874862006136192472e-02
9.575067178755042319e-02
9.284379577186685495e-02
9.002808355611346958e-02
8.730341538326452655e-02
8.466946019747223495e-02
8.212567564406086928e-02
7.967130806953270916e-02
7.730539252156198859e-02
7.502675274900100222e-02
7.283400120187444315e-02
7.072553903138395492e-02
6.869955608990468976e-02
6.675403093098836171e-02
6.488673080936013804e-02
6.309521168092169230e-02
6.137681820274798472e-02
5.972868373309131451e-02
5.814773033137643488e-02
5.663066875820510493e-02
5.517399847535298107e-02
5.377400764577155989e-02
5.239799120008831190e-02
5.089919961741101728e-02
4.925305782950711864e-02
4.745529549679472492e-02
4.550288661049378680e-02
4.339404949263003797e-02
4.112824679603077627e-02
3.870618550432941563e-02
3.612981693196071209e-02
3.340233672416542676e-02
3.052818485698599593e-02
2.751304563727074992e-02
2.436384770266936117e-02
2.108876402163806230e-02
1.769721189343370638e-02
1.419985294812015075e-02
1.060859314656176222e-02
6.936582780429856321e-03
3.198216472196369065e-03
-5.908668248597037653e-04
-4.413783826659301024e-03
-8.252406918315802198e-03
-1.208736415414246590e-02
-1.589803925764526893e-02
-1.966257162152984517e-02
-2.335785630769476873e-02
-2.695954404723827080e-02
-3.044204124045135629e-02
-3.377850995682452062e-02
-3.694086793504147703e-02
-3.989978858298520725e-02
-4.262470097773191080e-02
-4.508378986555688916e-02
-4.724399566192916122e-02
-4.907101445151618169e-02
-5.052929798817973328e-02
-5.158205369497925741e-02
-5.219124466417002228e-02
-5.231758965720306742e-02
-5.192056310472625835e-02
-5.095839510658367599e-02
-4.938807143181489501e-02
-4.716533351865709323e-02
-4.424467847454188751e-02
-4.057935907609966364e-02
-3.612138376915363658e-02
-3.082151666872734452e-02
-2.462927755903598914e-02
-1.749294189349620554e-02
-9.359540794714849010e-03
-1.748610545020956586e-04
1.011655486614360111e-02
2.157140883701902379e-02
3.424764705873384329e-02
4.820446006269141215e-02
6.350228271111002520e-02
8.020279419699932744e-02
9.836891804418668173e-02
1.180648221072870818e-01
1.393559185717375692e-01
1.623088639537594302e-01
1.869915591003978861e-01
2.134731491894804600e-01
2.418240237296616080e-01
2.721158165603748680e-01
3.044214058518837085e-01
3.388149141052275715e-01
3.753717081522790489e-01
4.141683991556830424e-01
4.552828426089219338e-01
4.987941383362459735e-01
5.447826304927473329e-01
5.933299075642816112e-01
6.444502667076360547e-01
6.969113453203544806e-01
7.496467255836559707e-01
8.019318629534554210e-01
8.530911146560954395e-01
9.024977396882553071e-01
9.495738988170406847e-01
9.937906545798956826e-01
1.034667971284687127e+00
1.071774715009625734e+00
1.104728653603338273e+00
1.133196456684803621e+00
1.156893695643408382e+00
1.175584843638897592e+00
1.189083275601418688e+00
1.197251268231484200e+00
1.200000000000000178e+00
1.197289551148247977e+00
1.189128903687892258e+00
1.175575941400983204e+00
1.156737449839944087e+00
1.132769116327593473e+00
1.103875529957113688e+00
1.070310181592090348e+00
1.032375463866465726e+00
9.904180350895909202e-01
9.448310264476557085e-01
8.961848484650086766e-01
8.450576537634971741e-01
7.919979194206029360e-01
7.375244469693508220e-01
6.821263623984025193e-01
6.262631161519612855e-01
5.703644831298679829e-01
5.148305626875047114e-01
4.600317786358917305e-01
4.063088792415896489e-01
3.539729372267973462e-01
3.033053497692554945e-01
2.545578385023407053e-01
2.079524495149739360e-01
1.636815533517094190e-01
1.219078450126487301e-01
8.276434395352233464e-02
4.635439408561431440e-02
1.275166377583109023e-02
-1.799985415336180505e-02
-4.588584242388182854e-02
-7.092165930208155222e-02
-9.315233859870158950e-02
-1.126044299963731010e-01
-1.288441067805201623e-01
-1.419359349902909462e-01
-1.521148974453109537e-01
-1.596082729648976573e-01
-1.646356363680425705e-01
-1.674088584734243212e-01
-1.681321060993997696e-01
-1.670018420640092260e-01
-1.642068251849747307e-01
-1.599281102796983878e-01
-1.543390481652670287e-01
-1.476052856584449402e-01
-1.398847655756835229e-01
-1.313277267331095510e-01
-1.220767039465385784e-01
-1.122665280314601444e-01
-1.020243258030538169e-01
-9.146952007617209501e-02
-8.071382966535844972e-02
-6.986126938482845050e-02
-5.900815004848891654e-02
-4.824307846991898741e-02
-3.764695746238910790e-02
-2.729298583884154361e-02
-1.724665841191003191e-02
-7.565765993900908093e-03
1.699604603189242003e-03
1.050707056769051295e-02
1.882195308824308189e-02
2.661727735381308468e-02
3.387377255367762796e-02
4.057987187743927748e-02
4.673171251501273549e-02
5.233313565663533229e-02
5.739568649285919921e-02
6.193861421455909566e-02
6.598887201292247262e-02
6.958111707946090796e-02
7.275771060599905971e-02
7.556871778468382539e-02
7.807190780797879093e-02
8.033275386866478573e-02
8.242342662682816679e-02
8.435270151731866228e-02
8.611132983627639570e-02
8.771417010304927153e-02
8.917555446438635292e-02
9.050928869443458646e-02
9.172865219474246601e-02
9.284639799425670192e-02
9.387475274932449709e-02
9.482541674369193707e-02
9.570956388850559993e-02
9.653784172231111294e-02
9.732037141105426281e-02
9.806674774807977446e-02
9.878603915413275427e-02
9.948678767735746886e-02
1.001770089932981778e-01
1.008641924048985228e-01
1.015553008425020831e-01
1.022567708638516537e-01
1.029745126540901889e-01
1.037139100257598034e-01
1.044798204188028823e-01
1.052765749005605267e-01
1.061079781657747745e-01
1.069773085365860466e-01
1.078873179625352563e-01
1.088402320205624774e-01
1.098377499150079428e-01
1.108810444776108239e-01
1.119707621675108955e-01
1.131070230712464264e-01
1.142894209027565111e-01
1.155170230033788492e-01
1.167883703418518548e-01
1.181014775143124362e-01
1.194538327442982162e-01
1.208423978827456446e-01
1.222636084079916641e-01
1.237133734257719331e-01
1.251895166587415620e-01
1.267051429077783453e-01
1.282638747746635000e-01
1.298667078923000373e-01
1.315145961231379834e-01
1.332084515591717144e-01
1.349491445219421770e-01
1.367375035625350010e-01
1.385743154615822759e-01
1.404603252292607740e-01
1.423962361052936165e-01
1.443827095589487186e-01
1.464203652890406770e-01
1.485097812239277726e-01
1.506514935215162998e-01
1.528459965692557931e-01
1.550937429841432458e-01
1.573951436127194459e-01
1.597505675310727513e-01
1.621603420448347599e-01
1.646247526891851942e-01
1.671440432288467948e-01
1.697184156580902048e-01
1.723480302007294185e-01
1.750330053101261107e-01
1.777734176691855295e-01
1.805693021903604922e-01
1.834206520156472786e-01
1.863274185165899599e-01
1.892895112942757363e-01
1.923067981793399328e-01
1.953791052319608923e-01
1.985062167418650825e-01
2.016878752283217668e-01
2.049237814401489999e-01
2.082135943557069657e-01
2.115569311829045285e-01
2.149533673591932370e-01
2.184024365515732091e-01
2.219036306565870253e-01
2.254563998003257241e-01
2.290601523384233618e-01
2.327165812317044669e-01
2.364451105236978767e-01
2.402471859562845813e-01
2.441190327974976926e-01
2.480569097978314597e-01
2.520571091902360505e-01
2.561159566901228812e-01
2.602298114953587316e-01
2.643950662862725176e-01
2.686081472256475200e-01
2.728655139587295997e-01
2.771636596132195374e-01
2.814991107992794728e-01
2.858684276095274646e-01
2.902682036190429304e-01
2.946950658853604299e-01
2.991456749484764366e-01
3.036167248308425659e-01
3.081049430373724585e-01
3.126070905554343415e-01
3.171199618548586896e-01
3.216403848879312299e-01
3.261652210893992709e-01
3.306913653764651517e-01
3.352157461487934587e-01
3.397353252885034758e-01
3.442470981601765123e-01
3.487480936108490193e-01
3.532353739700194728e-01
3.577060350496408248e-01
3.621572061441288293e-01
3.665860500303534941e-01
3.709897629676472963e-01
3.753655746977970775e-01
3.797107484450525927e-01
3.840225809161178505e-01
3.882984023001591067e-01
3.925355762687974259e-01
3.967314999761158978e-01
4.008836040586530869e-01
4.049893526354088058e-01
4.090462433078381199e-01
4.130518071598574537e-01
4.170036087578417039e-01
4.208992461506209093e-01
4.247363508694881329e-01
4.285125879281906913e-01
4.322256558229380374e-01
4.358732865323948769e-01
4.394532455176874963e-01
4.429633317223976574e-01
4.464013775725682587e-01
4.497652489766984507e-01
4.530528453257480770e-01
4.562620994931330110e-01
4.593909778347301520e-01
4.624374801888723185e-01
4.653996398763534659e-01
4.682755237004232463e-01
4.710632319467926710e-01
4.737608983836286702e-01
4.763666902615585341e-01
4.788788083136668039e-01
4.812954867554974925e-01
4.836149932850516420e-01
4.858356290827909874e-01
4.879557288116332936e-01
4.899736606169567965e-01
4.918878261265970941e-01
4.936966604508485901e-01
4.953986321824641603e-01
4.969922433966554864e-01
4.984760296510918343e-01
4.998485599859021633e-01
5.011084369236727953e-01
5.022542964694494128e-01
5.032848081107353932e-01
5.041986748174935862e-01
5.049946330421440921e-01
5.056714527195664832e-01
5.062279372670984712e-01
5.066629235845364621e-01
5.069752820541344462e-01
5.071639165406063299e-01
5.072277643911236034e-01
5.071657964353158965e-01
5.069770169852724218e-01
5.066604638355400869e-01
5.062152082631243832e-01
5.056403550274892744e-01
5.049350423705578628e-01
5.040984420167101687e-01
5.031297591727869056e-01
5.020282325280852609e-01
5.007931342543621156e-01
4.994237700058318241e-01
4.979194789191687676e-01
4.962796336135041342e-01
4.944996831477136423e-01
4.925723990092162330e-01
4.905016516765906553e-01
4.882916862635554578e-01
4.859467037818072654e-01
4.834708611410172274e-01
4.808682711488354578e-01
4.781430025108849291e-01
4.752990798307685782e-01
4.723404836100620896e-01
4.692711502483208896e-01
4.660949720430738186e-01
4.628157971898284595e-01
4.594374297820664754e-01
4.559636298112480501e-01
4.523981131668073363e-01
4.487445516361575626e-01
4.450065729046851493e-01
4.411877605557563697e-01
4.372916540707098010e-01
4.333217488288645391e-01
4.292814961075123170e-01
4.251743030819241653e-01
4.210035328253447506e-01
4.167725043089979264e-01
4.124844924020816261e-01
4.081427278717686402e-01
4.037503973832144988e-01
3.993106434995445930e-01
3.948265646818629460e-01
3.903012152892482156e-01
3.857376055787604674e-01
3.811387017054308490e-01
3.765074257222685850e-01
3.718466555802574236e-01
3.671592251283632979e-01
3.624479241135221130e-01
3.577154981806486278e-01
3.529646488726315701e-01
3.481980336303424073e-01
3.434182657926224680e-01
3.386279145962916015e-01
3.338295051761439591e-01
3.290255185649563208e-01
3.242183916934752164e-01
3.194105173904259187e-01
3.146042443825076695e-01
3.098018772944025612e-01
3.050056766487626581e-01
3.002178588662184344e-01
2.954405962653743334e-01
2.906760170628179818e-01
2.859262053731062014e-01
2.811932012087752231e-01
2.764790004803350243e-01
2.717855549962778783e-01
2.671147724630664744e-01
2.624685164851419117e-01
2.578486065649194803e-01
2.532568181027969878e-01
2.486948823971424360e-01
2.441644866443021256e-01
2.396672739385966588e-01
2.352048432723290450e-01
2.307787495357727092e-01
2.263905035171791535e-01
2.220415719027745149e-01
2.177333772767667819e-01
2.134672981213348031e-01
2.092446688166353930e-01
2.050667796407998900e-01
2.009348767699417060e-01
1.968501622781451132e-01
1.928137941374717945e-01
1.888268862179607321e-01
1.848905082876249883e-01
1.810056860124590328e-01
1.771734009564289725e-01
1.733945905814783250e-01
1.696701482475259093e-01
1.660009232124713963e-01
1.623877206321858724e-01
1.588313015605187228e-01
1.553323829492934127e-01
1.518916376483154806e-01
1.485096944053611034e-01
1.451871378661846457e-01
1.419245085745157731e-01
1.387223029720640044e-01
1.355809733985118282e-01
1.325009280915185883e-01
1.294825311867190409e-01
1.265261027177285724e-01
1.236319186161342065e-01
1.208002107115012658e-01
1.180311667313697077e-01
1.153249303012597871e-01
1.126816009446641731e-01
1.101017504113112055e-01
1.075873118416093011e-01
1.051374739761832267e-01
1.027510994322259341e-01
1.004270611193484042e-01
9.816424223957703754e-02
9.596153628735770713e-02
9.381784704955009602e-02
9.173208860543136112e-02
8.970318532669441236e-02
8.773007187745124336e-02
8.581169321422821294e-02
8.394700458596870973e-02
8.213497153403215290e-02
8.037456989219682324e-02
7.866478578665536681e-02
7.700461563601779247e-02
7.539306615130969558e-02
7.382915433597592170e-02
7.231190748587540407e-02
7.084036318928432774e-02
6.941356932689518588e-02
6.803058407181883371e-02
6.669047588958043615e-02
6.539232353812296505e-02
6.413521606780514528e-02
6.291825282140395270e-02
6.174054343411145007e-02
6.060120783353661889e-02
5.949937623970469325e-02
5.843418916505899174e-02
5.740479741445786432e-02
5.641036208517680173e-02
5.545005456690754730e-02
5.452305654175959582e-02
5.362855998425769544e-02
5.276576716134384615e-02
5.193389063237607850e-02
5.113215324913034099e-02
5.035978815579772450e-02
4.961603878898657172e-02
4.890015887772136693e-02
4.821141244344429033e-02
4.754907380001305306e-02
4.691242755370222950e-02
4.630076860320270216e-02
4.571340213962310495e-02
4.514964364648749173e-02
4.460881889973672410e-02
4.409026396772836032e-02
4.359332521123709947e-02
4.311735928345339364e-02
4.266173312998478018e-02
4.222582398885499355e-02
4.180901939050507554e-02
4.141071715779193196e-02
4.103032540598938738e-02
4.066726254278779651e-02
4.032095726829432181e-02
3.999084857503237833e-02
3.967638574794229989e-02
3.937702836438061738e-02
3.909224629412100249e-02
3.882151969935321301e-02
3.856433903468386992e-02
3.832020504713601339e-02
3.808862877614965781e-02
3.786913155358090366e-02
3.766124500370282568e-02
3.746451104320480674e-02
3.727848188119337047e-02
3.710272001919090457e-02
3.693679825113677095e-02
3.678029966338697276e-02
3.663281763471398778e-02
3.649395583630699047e-02
3.636332823177168549e-02
3.624055907713030766e-02
3.612528292082189951e-02
3.601714460370181170e-02
3.591579925904225812e-02
3.582091231253181629e-02
3.573215948227598249e-02
3.564922677879639457e-02
3.557181050503166464e-02
3.549961725633682397e-02
3.543236392048371153e-02
3.536977767766041891e-02
3.531159600047173441e-02
3.525756665393942058e-02
3.520744769550127051e-02
3.516100747501199608e-02
3.511802463474295033e-02
3.507828810938184994e-02
3.504159712603333032e-02
3.500776120421816850e-02
3.497660015587417126e-02
3.494794408535545349e-02
3.492163338943304884e-02
3.489751875729418806e-02
3.487546117054302064e-02
3.485533190319994867e-02
3.483701252170251506e-02
3.482039488490423773e-02
3.480538114407555339e-02
3.479188374290365093e-02
3.477982541749191636e-02
3.476913919636070993e-02
3.475976840044670002e-02
3.475166664310330722e-02
3.474479783010042677e-02
3.473913615962492818e-02
3.473466612227954498e-02
3.473138250108442904e-02
3.472929037147576281e-02
3.472840510130648095e-02
3.472875235084621481e-02
3.473036807278118143e-02
3.473329851221390596e-02
3.473760020666394333e-02
3.474333998606715657e-02
3.475059497277604992e-02
3.475945258155976880e-02
3.477000091282167471e-02
3.478207581876824328e-02
3.479547498591123444e-02
3.481005943882820031e-02
3.482569552661329837e-02
3.484225492287756909e-02
3.485961462574899139e-02
3.487765695787170550e-02
3.489626956640745625e-02
3.491534542303409427e-02
3.493478282394668621e-02
3.495448538985673759e-02
3.497436206599269237e-02
3.499432712209971097e-02
3.501430015243989224e-02
3.503420607579188495e-02
3.505397513545105426e-02
3.507354289922975932e-02
3.509285025945707570e-02
3.511184343297885091e-02
3.513047396115753784e-02
3.514869870987258338e-02
3.516647986952009530e-02
3.518378495501278680e-02
3.520058680578053156e-02
3.521686358576986420e-02
3.523259878344364715e-02
3.524778121178195889e-02
3.526240500828170532e-02
3.527646963495623122e-02
3.528997987833587535e-02
3.530294584946774838e-02
3.531538298391551089e-02
3.532731204175992845e-02
3.533875910759826100e-02
3.534975559054459593e-02
3.536033822422995909e-02
3.537054906680198174e-02
3.538043550092501155e-02
3.539005023378044568e-02
3.539945129706612015e-02
3.540870204699675394e-02
3.541787116430400451e-02
3.542703265423619019e-02
3.543626584655812373e-02
3.544565539555194489e-02
3.545529128001606578e-02
3.546526880326589248e-02
3.547568859313371403e-02
3.548665660196820282e-02
3.549828410663524725e-02
3.551068770851717460e-02
3.552398933351325061e-02
3.553831623203945744e-02
3.555380097902871572e-02
3.557058147393027392e-02
3.558880094071076305e-02
3.560860792785297546e-02
3.563015630835697500e-02
3.565360527973920890e-02
3.567911936403311834e-02
3.570686840778897198e-02
3.573702758207358832e-02
3.576977738247066885e-02
3.580530362908079800e-02
3.584379746652099907e-02
3.588545536392545587e-02
3.593047911494495761e-02
3.597907583774695439e-02
3.603145797501577929e-02
3.608784329395259283e-02
3.614845488627527192e-02
3.621352116821829892e-02
3.628327588053320563e-02
3.635795808848818478e-02
3.643781218186809001e-02
3.652308787497465792e-02
3.661404020662639702e-02
3.671092954015853227e-02
3.681402156342317156e-02
3.692206479860610235e-02
3.703115920499588931e-02
3.714272617663988418e-02
3.725857621889860916e-02
3.738051063698843990e-02
3.751032153598132801e-02
3.764979182080491205e-02
3.780069519624257302e-02
3.796479616693337888e-02
3.814385003737197355e-02
3.833960291190890990e-02
3.855379169475037227e-02
3.878814408995789886e-02
3.904437860144910344e-02
3.932420453299717567e-02
3.962932198823121421e-02
3.996142187063533857e-02
4.032218588355013233e-02
4.071328653017131094e-02
4.113638711355083188e-02
4.159314173659561797e-02
4.208519530206883408e-02
4.261418351258922099e-02
4.318173287063142851e-02
4.378946067852496071e-02
4.443897503845578578e-02
4.513187485246550334e-02
4.586974982245151100e-02
4.665418045016589410e-02
4.748673803721753517e-02
4.836898468507083715e-02
4.930247329504544584e-02
5.028874756831752668e-02
5.132934200591743323e-02
5.242578190873259381e-02
5.357958337750556854e-02
5.479225331283532618e-02
5.606528941517491260e-02
5.740018018483433737e-02
5.879840492197924151e-02
6.026143372663123055e-02
6.179072749866587611e-02
6.338773793781621313e-02
6.505390754367051942e-02
6.679066961567331484e-02
6.859944825312280781e-02
7.048165835517467004e-02
7.243870562084009368e-02
7.447198654898645742e-02
7.658288843833432891e-02
7.877278938746262726e-02
8.104305829480490386e-02
8.339505485865161827e-02
8.583012957714591940e-02
8.834962374828936316e-02
9.095486946993835975e-02
9.364718963980644961e-02
9.642789795545897436e-02
9.929829891432057076e-02
1.022596878136703413e-01
1.053133507506447408e-01
1.084605646222315256e-01
1.117025971252781913e-01
1.150407067564869212e-01
1.184761428124166960e-01
1.220205692725370161e-01
1.256894620245576633e-01
1.294745146859792584e-01
1.333669934696234405e-01
1.373582713567417235e-01
1.414398280970265986e-01
1.456032502086034297e-01
1.498402309780353381e-01
1.541425704603150981e-01
1.585021754788760173e-01
1.629110596255851640e-01
1.673613432607468088e-01
1.718452535130947645e-01
1.763551242798038210e-01
1.808833962264819739e-01
1.854226167871753095e-01
1.899654401643583457e-01
1.945046273289472438e-01
1.990330460202913709e-01
2.035436707461778516e-01
2.080295827828225752e-01
2.124839701748829635e-01
2.169001277354497548e-01
2.212714570460508900e-01
2.255914664566438521e-01
2.298537710856272120e-01
2.340520928198329687e-01
2.381802603145302122e-01
2.422322089934177969e-01
2.462019810486354432e-01
2.500837254407565213e-01
2.538716978987909378e-01
2.575602609201793625e-01
2.611438837708025540e-01
2.646171424849750320e-01
2.679747198654478524e-01
2.712114054834032784e-01
2.743220956784629960e-01
2.773017935586828964e-01
2.801456090005549626e-01
2.828487586490032735e-01
2.854065659173904423e-01
2.878144609875136206e-01
2.900679808096059409e-01
2.921627691023327422e-01
2.940945763527982315e-01
2.958592598165403764e-01
2.974527835175331258e-01
2.988712182481844115e-01
3.001107415693385905e-01
3.011676378102753349e-01
3.020382980687095209e-01
3.027192202107905628e-01
3.032070088711039668e-01
3.034983754526705546e-01
3.035901381269464627e-01
3.034792218338224767e-01
3.031626582816254745e-01
3.026375859471174268e-01
3.019012500754949535e-01
3.009510026803913219e-01
2.997843025438740039e-01
2.983987152164463419e-01
2.967919130170456610e-01
2.949616750330474879e-01
2.929044330396529672e-01
2.906251148607469359e-01
2.881346967862348230e-01
2.854439645316633190e-01
2.825635111861090065e-01
2.795037372121830233e-01
2.762748504460290633e-01
2.728868660973283733e-01
2.693496067492919810e-01
2.656727023586656911e-01
2.618655902557270876e-01
2.579375151442925285e-01
2.538975291017070424e-01
2.497544915788508790e-01
2.455170694001360676e-01
2.411937367635139662e-01
2.367927752404636044e-01
2.323222737759996770e-01
2.277901286886687693e-01
2.232040436705565734e-01
2.185715297872768970e-01
2.138999054779787690e-01
2.091962965553428866e-01
2.044676362055898311e-01
1.997206649884674112e-01
1.949619308372595450e-01
1.901977890587834841e-01
1.854344023333877045e-01
1.806777407149610104e-01
1.759335816309194334e-01
1.712075098822147812e-01
1.665049176433299749e-01
1.618310044622884858e-01
1.571907772606405684e-01
1.525890503334724757e-01
1.480304453494017958e-01
1.435193913505861119e-01
1.390601247527105677e-01
1.346566893449953062e-01
1.303129362901932486e-01
1.260325241245956462e-01
1.218189187580221988e-01
1.176753934738279384e-01
1.136050289288997872e-01
1.096107131536635526e-01
1.056951415520737125e-01
1.018608169016192999e-01
9.811004935332218180e-02
9.444495643174233290e-02
9.086746303496834321e-02
8.737930143462457888e-02
8.398201127586657488e-02
8.067693957738913957e-02
7.746524073141508593e-02
7.434787650370328072e-02
7.132561603354425905e-02
6.839903583376655272e-02
6.556851979072797487e-02
6.283425916432133773e-02
6.019625258797206557e-02
5.765430606864269114e-02
5.520803298682580573e-02
5.285685409654872213e-02
5.059867515273130945e-02
4.842776580783925144e-02
4.634239982881011022e-02
4.434062714728764787e-02
4.241981952345497131e-02
4.057667054603752987e-02
3.880719563229817481e-02
3.710673202804076753e-02
3.546993880760801465e-02
3.389079687388513173e-02
3.236260895829501383e-02
3.087799962080112204e-02
2.942891524990626229e-02
2.800662406265547189e-02
2.660171610463130110e-02
2.520410324995719931e-02
2.380301920129601623e-02
2.238701948985205581e-02
2.094398147536830068e-02
1.946110434612785545e-02
1.792490911895316952e-02
1.632123863920892370e-02
1.463525758079742278e-02
1.285145244616187066e-02
1.095363156628442747e-02
8.924925100689817814e-03
6.747785037440223732e-03
4.403985193138504339e-03
1.874621212926419478e-03
-8.598894295108183705e-04
-3.819807431951538490e-03
-7.026071663633004505e-03
-1.050029916525391238e-02
-1.426478514896867278e-02
-1.834250299839590426e-02
-2.275710426861299318e-02
-2.753291868615970195e-02
-3.269495414902900965e-02
-3.826889672668054576e-02
-4.428176401700206766e-02
-5.073076754674799016e-02
-5.755205369557064854e-02
-6.467361725645326409e-02
-7.202047152296009447e-02
-7.951464828924265094e-02
-8.707519785002615365e-02
-9.461818900062979321e-02
-1.020567090369533525e-01
-1.093008637554833129e-01
-1.162577774532808084e-01
-1.228315929280003882e-01
-1.289234714778770274e-01
-1.344315929017321776e-01
-1.392511554989636635e-01
-1.432743760695607826e-01
-1.463904899140942018e-01
-1.484857508337187881e-01
-1.494434311301711116e-01
-1.491438216057744959e-01
-1.474642315634348000e-01
-1.442789888066402515e-01
-1.394594396394672198e-01
-1.328739488665722224e-01
-1.243878997931968100e-01
-1.138636942251609052e-01
-1.011607524688831194e-01
-8.613551333135227583e-02
-6.871508735202014329e-02
-4.895647270385861116e-02
-2.676035942598464779e-02
-2.047057039442579107e-03
2.523309058805073279e-02
5.509970524212853826e-02
8.754237436172002118e-02
1.225206510391294579e-01
1.599640540199848138e-01
1.997720677032679415e-01
2.418141421412437486e-01
2.859296930395656133e-01
3.319281017572055514e-01
3.795887153064935182e-01
4.286608463530318103e-01
4.788637732158218530e-01
5.298867398671807116e-01
5.813889559327837242e-01
6.329995966915743510e-01
6.843178030759008434e-01
7.349126816714236510e-01
7.843233047171623840e-01
8.320587101054063295e-01
8.775979013818476782e-01
9.203898477454918181e-01
9.598534840486808717e-01
9.953777107971076843e-01
1.026361168471138008e+00
1.052534941084502407e+00
1.073686913317835945e+00
1.089627584074285505e+00
1.100215149350434185e+00
1.105355502236343490e+00
1.105002232915522242e+00
1.099156628664931024e+00
1.087867673854996831e+00
1.071232049949594423e+00
1.049394135506056980e+00
1.022546006175160560e+00
9.909274347011732820e-01
9.548258909217849366e-01
9.145765417681529508e-01
8.705622512648690803e-01
8.232135805300412335e-01
7.730087877751753433e-01
7.204738283052519732e-01
6.661823545186827955e-01
6.107557159074094022e-01
5.548629590567555336e-01
4.989544615838353847e-01
4.432321107473681243e-01
3.880570771706436384e-01
3.337647859709506060e-01
2.806646040626273875e-01
2.290398401570151732e-01
1.791477447625501318e-01
1.312195101846236334e-01
8.546027052567672921e-02
4.204910168515668678e-02
1.139021359594538652e-03
-3.714301095751276760e-02
-7.269609397562187825e-02
-1.054453846071781720e-01
-1.353420979675585833e-01
-1.623635073751586444e-01
-1.865129443513329488e-01
-2.078197986204194103e-01
-2.263395181097034303e-01
-2.421536089494726596e-01
-2.553696354729795281e-01
-2.660786064594095057e-01
-2.741155136996217823e-01
-2.796222002498473524e-01
-2.828107782878834797e-01
-2.838859397634686532e-01
-2.830449563982821992e-01
-2.804776796859462795e-01
-2.763665408920238931e-01
-2.708865510540163779e-01
-2.642053009813742359e-01
-2.564829612554823113e-01
-2.478722822296690054e-01
-2.385185940291996987e-01
-2.285598065512939314e-01
-2.181264094651002572e-01
-2.073414722117126185e-01
-1.963206440041612988e-01
-1.851721538274329060e-01
-1.739968104384406744e-01
-1.628880023660440879e-01
-1.519316979110391930e-01
-1.412064451461781389e-01
-1.307833719161394792e-01
-1.207261858375483499e-01
-1.110911742989670881e-01
-1.019272044609120798e-01
-9.327572325582794699e-02
-8.517075738810558905e-02
-7.763891333407385575e-02
-7.069937734201264812e-02
-6.436391543213315636e-02
-5.863093099386440521e-02
-5.344154606721157608e-02
-4.875057348910305510e-02
-4.452154527942092654e-02
-4.071928368487709449e-02
-3.730990117900973013e-02
-3.426080046218898945e-02
-3.154067446160785382e-02
-2.911950633128856936e-02
-2.696856945208014888e-02
-2.506042743166164710e-02
-2.336893410453710906e-02
-2.186923353203890086e-02
-2.053776000232671040e-02
-1.935223803038915724e-02
-1.829168235804090603e-02
-1.733639795392438732e-02
-1.646798001350990859e-02
-1.566931395909576530e-02
-1.492457543980729717e-02
-1.421923033159727678e-02
-1.354003473724596507e-02
-1.287503498636205501e-02
-1.221356763538100632e-02
-1.154625946756593358e-02
-1.086502749300738424e-02
-1.016307894862439332e-02
-9.434911298162373949e-03
-8.676312232195004803e-03
-7.884359668122897791e-03
-7.057421750175263409e-03
-6.195156849408245403e-03
-5.298513563705142815e-03
-4.369730717777020601e-03
-3.412337363163708837e-03
-2.431152778230971645e-03
-1.432286468173005201e-03
-4.231381650107723935e-04
5.927223088946220741e-04
1.637019555064067600e-03
2.714429764008485790e-03
3.826039317847140797e-03
4.972906686581235469e-03
6.156062428096575889e-03
7.376509188162072572e-03
8.635221700430073533e-03
9.933146786434920994e-03
1.127120335559561592e-02
1.265028240521409719e-02
1.407124702047607423e-02
1.553493237444869557e-02
1.704214572808437911e-02
1.859366643021803656e-02
2.019024591756801712e-02
2.183260771473666262e-02
2.352144743420725437e-02
2.525743277634878714e-02
2.704120352941252747e-02
2.887337156953417860e-02
3.075452086073010571e-02
3.268520745490216539e-02
3.466595949183526315e-02
3.669727719919790854e-02
3.877963289253960610e-02
4.091347097529568488e-02
4.309920793878380119e-02
4.533723236220599251e-02
4.762790491264445869e-02
4.997155834506789018e-02
5.236849750232708267e-02
5.481899931515732405e-02
5.732331280217384251e-02
5.988165906987846787e-02
6.249423131265530174e-02
6.516119481277266035e-02
6.788268694037891127e-02
7.065881715350885717e-02
7.348966699807996106e-02
7.637529010789384509e-02
7.931571220463151661e-02
8.231093109786141726e-02
8.536091668503381635e-02
8.846561095148364195e-02
9.162492797042515180e-02
9.483875390295964936e-02
9.810694699807076535e-02
1.014312960203257452e-01
1.048151089404827374e-01
1.082570778154827718e-01
1.117557233186411425e-01
1.153095401454171665e-01
1.189169970134089649e-01
1.225765366623621233e-01
1.262865758541636962e-01
1.300455053728456489e-01
1.338516900245777519e-01
1.377034686376775729e-01
1.415991540626047041e-01
1.455370331719629817e-01
1.495153668604942698e-01
1.535323900450884516e-01
1.575863116647768791e-01
1.616753146807358155e-01
1.657975560762787737e-01
1.699511668568680633e-01
1.741342520501071300e-01
1.783448907057443300e-01
1.825811358956651587e-01
1.868410147139041300e-01
1.911225282766366718e-01
1.954236517221834557e-01
1.997423342110019595e-01
2.040764989256986794e-01
2.084240430710214698e-01
2.127828378738624293e-01
2.171507285832519063e-01
2.215255344703680462e-01
2.259050488285307967e-01
2.302870389732049050e-01
2.346692462419918135e-01
2.390493859946427602e-01
2.434251476130492309e-01
2.477941945012481773e-01
2.521541640854134680e-01
2.565026678138678795e-01
2.608372911570752128e-01
2.651555936076446240e-01
2.694551086803219642e-01
2.737333439120022138e-01
2.779877808617214896e-01
2.822158751106603747e-01
2.864150562621373686e-01
2.905827279416196562e-01
2.947162677967148925e-01
2.988130274971763090e-01
3.028703327348941654e-01
3.068854832239076291e-01
3.108557527003968923e-01
3.147783889226870579e-01
3.186506136712404791e-01
3.224696227486685274e-01
3.262325859797232663e-01
3.299366472113018922e-01
3.335789243124391845e-01
3.371565091743182752e-01
3.406664677102637651e-01
3.441058398557441667e-01
3.474716395683673520e-01
3.507608548278878802e-01
3.539704476362025565e-01
3.570973540173519867e-01
3.601384840175162472e-01
3.630907217050221014e-01
3.659509251703382260e-01
3.687159265260773200e-01
3.713825319069916642e-01
3.739475214699801153e-01
3.764076493940835544e-01
3.787596438804865517e-01
3.810002071525135925e-01
3.831260154556357378e-01
3.851337190574656288e-01
3.870202278427342657e-01
3.887857547670113822e-01
3.904299100967328906e-01
3.919517953899284146e-01
3.933505851336764891e-01
3.946255267441043380e-01
3.957759405663900942e-01
3.968012198747610242e-01
3.977008308724946373e-01
3.984743126919165768e-01
3.991212773944030623e-01
3.996414099703804457e-01
4.000344683393232126e-01
4.003002833497568691e-01
4.004387587792556102e-01
4.004498713344438743e-01
4.003336706509948995e-01
4.000902792936321672e-01
3.997198927561286252e-01
3.992227794613069092e-01
3.985992807610390098e-01
3.978498109362461621e-01
3.969748571969006212e-01
3.959749796820224432e-01
3.948508114596827046e-01
3.936030585270005044e-01
3.922324998101468507e-01
3.907399871643405520e-01
3.891264453738504381e-01
3.873928721519941387e-01
3.855403381411411923e-01
3.835699869127089379e-01
3.814830349671644028e-01
3.792807717340231921e-01
3.769645595718542630e-01
3.745358337682724859e-01
3.719961025399435295e-01
3.693469470325817516e-01
3.665900213209539737e-01
3.637270524088739299e-01
3.607598402292054862e-01
3.576902576438609760e-01
3.545202504438063063e-01
3.512518373490531864e-01
3.478871100086640133e-01
3.444282330007494286e-01
3.408774438324739808e-01
3.372370529400476880e-01
3.335094436887312552e-01
3.296970723728335217e-01
3.258024682157177887e-01
3.218282333697923825e-01
3.177770429165162058e-01
3.136516448663967394e-01
3.094548601589957038e-01
3.051895826629195119e-01
3.008587791758259300e-01
2.964654894244200811e-01
2.920128260644629936e-01
2.875039746807589447e-01
2.829421937871642312e-01
2.783308148265822846e-01
2.736732421709725527e-01
2.689729531213379543e-01
2.642334979077328727e-01
2.594584996892592699e-01
2.546516545540749021e-01
2.498167315193812188e-01
2.449575725314309116e-01
2.400780924655241400e-01
2.351822791260176349e-01
2.302741932463107100e-01
2.253579684888546986e-01
2.204378114451481796e-01
2.155180016357460815e-01
2.106028915102463595e-01
2.056969064472984332e-01
2.007991127987877045e-01
1.959068421137100113e-01
1.910226149966105513e-01
1.861488973853503426e-01
1.812880980063833469e-01
1.764425683747654627e-01
1.716146027941413132e-01
1.668064383567530173e-01
1.620202549434356376e-01
1.572581752236261732e-01
1.525222646553500150e-01
1.478145314852306047e-01
1.431369267484839947e-01
1.384913442689281737e-01
1.338796206589699667e-01
1.293035353196133608e-01
1.247648104404558422e-01
1.202651109996963896e-01
1.158060447641227064e-01
1.113891622891202138e-01
1.070159569186671655e-01
1.026878647853435300e-01
9.840626481031827799e-02
9.417247870335782034e-02
8.998777096282178922e-02
8.585334887567086515e-02
8.177036251745500861e-02
7.773990475232189779e-02
7.376301123301226559e-02
6.984066040086756022e-02
6.597377348581923151e-02
6.216321450639572532e-02
5.840979026971898636e-02
5.471425037151139703e-02
5.107728719608561896e-02
4.749953591635108774e-02
4.398157449381095985e-02
4.052392367856844091e-02
3.712704700931723778e-02
3.379135081334799784e-02
3.051718420654514485e-02
2.730483909339254112e-02
2.415455016696527180e-02
2.106649490893491850e-02
1.804079358956695023e-02
1.507750926772633004e-02
1.217664779086924387e-02
9.338157795048318555e-03
6.561930704910068357e-03
3.847800733700446063e-03
1.195544883256904889e-03
-1.395117055987160626e-03
-3.924522505003691375e-03
-6.393066096166077905e-03
-8.801199673255821754e-03
-1.114943229145820558e-02
-1.343833021736406952e-02
-1.566851692896603643e-02
-1.784067311566445158e-02
-1.995553667826355237e-02
-2.201390272897280065e-02
-2.401662359140410707e-02
-2.596460880057666065e-02
-2.785882510291354253e-02
-2.970029645624316927e-02
-3.149010402979646184e-02
-3.322938620421150846e-02
-3.491933857153034504e-02
-3.656121393519951024e-02
-3.815632231007098918e-02
-3.970603092239999299e-02
-4.121176420984784539e-02
-4.267500382148003979e-02
-4.409728861776779363e-02
-4.547835758990298460e-02
-4.681536154715493225e-02
-4.810914725061016251e-02
-4.936069793076020007e-02
-5.057098465635739837e-02
-5.174096633441777060e-02
-5.287158971021921339e-02
-5.396378936730228393e-02
-5.501848772746836813e-02
-5.603659505078256720e-02
-5.701900943557164370e-02
-5.796661681842524283e-02
-5.888029097419394953e-02
-5.976089351599173094e-02
-6.060927389519460418e-02
-6.142626940144096936e-02
-6.221270516263072148e-02
-6.296939414492658260e-02
-6.369713715275376886e-02
-6.439672282879971288e-02
-6.506892765401328660e-02
-6.571451594760641113e-02
-6.633423986705316855e-02
-6.692883940809007948e-02
-6.749904240471499284e-02
-6.804556452918897325e-02
-6.856910929203513527e-02
-6.907036804203897651e-02
-6.955001996624743388e-02
-7.000873208997054897e-02
-7.044715927678057987e-02
-7.086594422851177910e-02
-7.126571748526050465e-02
-7.164709742538566406e-02
-7.201069026550843688e-02
-7.235709006051227465e-02
-7.268687870354251235e-02
-7.300062592600720102e-02
-7.329888929757638616e-02
-7.358221422618255181e-02
-7.385113395802023195e-02
-7.410616957754639911e-02
-7.434783000748024229e-02
-7.457661200880316699e-02
-7.479300018075879519e-02
-7.499746696085307640e-02
-7.519047262485434313e-02
-7.537246528679297786e-02
-7.554388089896163505e-02
-7.570514325191535221e-02
-7.585666397447138332e-02
-7.599884253370925435e-02
-7.613206623497059677e-02
-7.625671022185959158e-02
-7.637313747624235871e-02
-7.648169881824762317e-02
-7.658273290626604890e-02
-7.667656623695062734e-02
-7.676351314521678848e-02
-7.684387580424217878e-02
-7.691794422546643917e-02
-7.698599625859176010e-02
-7.704829759158249303e-02
-7.710510175066520588e-02
-7.715665010032884963e-02
-7.720317184332453619e-02
-7.724488402066559400e-02
-7.728199151162767899e-02
-7.731468703374877460e-02
-7.734315114282896975e-02
-7.736755223293068084e-02
-7.738804653637865183e-02
-7.740477812375978761e-02
-7.741787890392332061e-02
-7.742746862398069974e-02
-7.743365486930570141e-02
-7.743653306353420751e-02
-7.743618646856448295e-02
-7.743268618455712016e-02
-7.742563949120567779e-02
-7.741455013760029091e-02
-7.739963960613849281e-02
-7.738112990071122077e-02
-7.735923776510544858e-02
-7.733417468300390896e-02
-7.730614687798537110e-02
-7.727535531352447418e-02
-7.724199569299194934e-02
-7.720625845965412015e-02
-7.716832879667373524e-02
-7.712838662710908011e-02
-7.708660661391447677e-02
-7.704315815994033922e-02
-7.699820540793295143e-02
-7.695190724053430076e-02
-7.690441728028263313e-02
-7.685588388961195339e-02
-7.680645017085230286e-02
-7.675625396622953733e-02
-7.670542785786549356e-02
-7.665409916777810029e-02
-7.660238995788093419e-02
-7.655041702998383046e-02
-7.649829192579210568e-02
-7.644612092690772354e-02
-7.639400505482785153e-02
-7.634204007094602673e-02
-7.629031647655154513e-02
-7.623891951282985024e-02
-7.618792916086192246e-02
-7.613742014162511174e-02
-7.608746191599247144e-02
-7.603811868473309143e-02
-7.598944938851187603e-02
-7.594150770788976601e-02
-7.589434206332368316e-02
-7.584799561516619715e-02
-7.580250626366630273e-02
-7.575790664896853155e-02
-7.571422415111350723e-02
-7.567148089003772338e-02
-7.562969372557371006e-02
-7.558887425744981181e-02
-7.554902882529046515e-02
-7.551015850861586554e-02
-7.547225912684230043e-02
-7.543532123928192723e-02
-7.539933014514282883e-02
-7.536426588352895806e-02
-7.533010323344035974e-02
-7.529681171377300419e-02
-7.526435558331862063e-02
-7.523269384076497479e-02
-7.520178022469592438e-02
-7.517156321359103055e-02
-7.514198602582594644e-02
-7.511298661967208412e-02
-7.508449769329694767e-02
-7.505644668476396664e-02
-7.502875577203249602e-02
-7.500134187295781629e-02
-7.497411664529113340e-02
-7.494698648667957874e-02
-7.491985253466620920e-02
-7.489261066669011813e-02
-7.486515150008615782e-02
-7.483736039208543911e-02
-7.480911743981449868e-02
-7.478029748029635382e-02
-7.475077009044955867e-02
-7.472039958708887042e-02
-7.468904502692486069e-02
-7.465656020656397107e-02
-7.462279366250867962e-02
-7.458758867115744540e-02
-7.455078324880459739e-02
-7.451221015164027905e-02
-7.447169687575083685e-02
-7.442906565711832068e-02
-7.438413347162087241e-02
-7.433671203503239289e-02
-7.428660780302298594e-02
-7.423362197115851435e-02
-7.417755047490065534e-02
-7.411818398960740018e-02
-7.405530793053227701e-02
-7.398870245282490599e-02
-7.391814245153105478e-02
-7.384339756159202794e-02
-7.376423215784533305e-02
-7.368040535502445865e-02
-7.359167100775865222e-02
-7.349777771057303122e-02
-7.339846879788908263e-02
-7.329348234402366380e-02
-7.318255116319005715e-02
-7.306540280949713750e-02
-7.294175957694987167e-02
-7.281133849944920744e-02
-7.267385135079190706e-02
-7.252900464467065822e-02
-7.237649963467435166e-02
-7.221603231428735947e-02
-7.204729341689053435e-02
-7.186996841576004380e-02
-7.168373752406859145e-02
-7.148827569488447331e-02
-7.128325262117202188e-02
-7.106833273579132859e-02
-7.084317521149885444e-02
-7.060743396094659730e-02
-7.036307496528765304e-02
-7.012339721626259514e-02
-6.988719444806068548e-02
-6.965048025189346514e-02
-6.940936320833718254e-02
-6.916004688733223826e-02
-6.889882984818368472e-02
-6.862210563956083753e-02
-6.832636279949722002e-02
-6.800818485539072977e-02
-6.766425032400413819e-02
-6.729133271146381379e-02
-6.688630051326116543e-02
-6.644611721425142115e-02
-6.596784128865468277e-02
-6.544862620005514886e-02
-6.488572040140144770e-02
-6.427646733500619325e-02
-6.361830543254726189e-02
-6.290876811506618260e-02
-6.214548379296902514e-02
-6.132617586602590043e-02
-6.044866272337229285e-02
-5.951085774350711732e-02
-5.851076929429388507e-02
-5.744650073296003745e-02
-5.631625040609888888e-02
-5.511831164966668473e-02
-5.385107278898437766e-02
-5.251301713873679500e-02
-5.110272300297502568e-02
-4.961886367511253448e-02
-4.806020743792793759e-02
-4.642561756356328173e-02
-4.471405231352737486e-02
-4.292456493869112322e-02
-4.105630367929052893e-02
-3.910851176492513570e-02
-3.708052741456135948e-02
-3.497178383652749245e-02
-3.278180922851703372e-02
-3.051022677758685742e-02
-2.815675466016115402e-02
-2.572120604202549066e-02
-2.320348907833102992e-02
-2.060360691359175433e-02
-1.792165768168962892e-02
-1.515783450586782877e-02
-1.231242549873473591e-02
-9.385813762261607796e-03
-6.378477387788628050e-03
-3.290989456015802617e-03
-1.240180370091770179e-04
3.121673809802549826e-03
6.445228035621586304e-03
9.845691602290485012e-03
1.332201648228581448e-02
1.687305965872132330e-02
2.049758312534183391e-02
2.419425388653223541e-02
2.796164395731171037e-02
3.179823036333495612e-02
3.570239514089418309e-02
3.967242533691167639e-02
4.370651300895123104e-02
4.780275522520965881e-02
5.195915406452195073e-02
5.617361661635267289e-02
6.044395498080817886e-02
6.476788626862806098e-02
6.914303260118970229e-02
7.356692111050011640e-02
7.803698393920810439e-02
8.254996520985485864e-02
8.709793066385645988e-02
9.167096151044179519e-02
9.625932567966627440e-02
1.008534853164976264e-01
1.054440967808210061e-01
1.100220106474297799e-01
1.145782717060385147e-01
1.191041189612743745e-01
1.235909856326814493e-01
1.280304991547125404e-01
1.324144811767413721e-01
1.367349475630543765e-01
1.409841083928544681e-01
1.451543679602540493e-01
1.492383247742862240e-01
1.532287715588960264e-01
1.571186952529458614e-01
1.609012770102078438e-01
1.645698921993731245e-01
1.681181104040472274e-01
1.715396954227510484e-01
1.748286052689158598e-01
1.779789921708926359e-01
1.809852025719453916e-01
1.838417771302542914e-01
1.865434507189104307e-01
1.890851524259236083e-01
1.914620055542169963e-01
1.936693276216296944e-01
1.957026303609127327e-01
1.975576197197347339e-01
1.992301958606781387e-01
2.007164531612407599e-01
2.020126802138335620e-01
2.031153598257842141e-01
2.040211690193339811e-01
2.047269790316401661e-01
2.052298553147728910e-01
2.055270575357192042e-01
2.056160395763795279e-01
2.054944495335697674e-01
2.051601297190202011e-01
2.046111166593763686e-01
2.038445491248651598e-01
2.028594560813821168e-01
2.016610778816653182e-01
2.002549480028609219e-01
1.986466584489413600e-01
1.968418597507033407e-01
1.948462609657719558e-01
1.926656296785957956e-01
1.903057920004496140e-01
1.877726325694325515e-01
1.850720945504730208e-01
1.822101796353214898e-01
1.791929480425554777e-01
1.760265185175763358e-01
1.727170683326155753e-01
1.692708332867259857e-01
1.656941077057875189e-01
1.619932444425041806e-01
1.581746548764103588e-01
1.542448089138611644e-01
1.502102349880389820e-01
1.460775200589503608e-01
1.418533096134323435e-01
1.375443076651426955e-01
1.331572767545663449e-01
1.286990379490120517e-01
1.241764708426200681e-01
1.195965135563502590e-01
1.149661627379903184e-01
1.102924735621512164e-01
1.055825597302761931e-01
1.008435934706273240e-01
9.608280553829506854e-02
9.130748521519299610e-02
8.652498031006683465e-02
8.174269715848136997e-02
7.696810062282921638e-02
7.220871409232687554e-02
6.747211948302245244e-02
6.276595723778338742e-02
5.809792632630494946e-02
5.347578424510585071e-02
4.890734701753701730e-02
4.440048919376843317e-02
3.995636377488315238e-02
3.556480076964046999e-02
3.123105871594344940e-02
2.696086709504069701e-02
2.275958026580737759e-02
1.863217746474205017e-02
1.458326280597338487e-02
1.061706528124950477e-02
6.737438759945091338e-03
2.947861989058109256e-03
-7.485614067836987573e-04
-4.349102925332692937e-03
-7.851409186714841670e-03
-1.125350193343260807e-02
-1.455377803035901030e-02
-1.775100946474705843e-02
-2.084434334622320417e-02
-2.383330190679050498e-02
-2.671778250082307293e-02
-2.949805760507406838e-02
-3.217477481867064837e-02
-3.474895686311635368e-02
-3.722200158228611278e-02
-3.959568194243390238e-02
-4.187214603218730735e-02
-4.405391706255001871e-02
-4.614389336689850296e-02
-4.814534840098666502e-02
-5.006193074294290613e-02
-5.189766409327084551e-02
-5.365694727484981996e-02
-5.534455423293205278e-02
-5.696563403514731672e-02
-5.852571087149988083e-02
-6.003068405436956523e-02
-6.148682801850935409e-02
-6.290079232104972551e-02
-6.427960164149543187e-02
-6.563065578172683212e-02
-6.696172966599778231e-02
-6.828097334093929938e-02
-6.959691197555645248e-02
-7.091844586123058347e-02
-7.225485041171614276e-02
-7.361577616314451955e-02
-7.501124877402165492e-02
-7.645166902522948504e-02
-7.794781282002283262e-02
-7.951083118403395877e-02
-8.115225026526934338e-02
-8.288393020271145328e-02
-8.467187304508616563e-02
-8.652560413005250251e-02
-8.850874766703825669e-02
-9.067810209819188172e-02
-9.308364009837927222e-02
-9.576850857518898197e-02
-9.876902866892883770e-02
-1.021146957526281596e-01
-1.058281794320320990e-01
-1.099253235456097988e-01
-1.144151461645495083e-01
-1.192998395927613586e-01
-1.245747703668692585e-01
-1.302284792562233839e-01
-1.362426812628920736e-01
-1.425922656216664919e-01
-1.492452958000493046e-01
-1.561630094982717487e-01
-1.632998186492822523e-01
-1.706033094187526522e-01
-1.780142422050650652e-01
-1.854665516393313451e-01
-1.928873465853800651e-01
-2.001969101397633177e-01
-2.073086996317433928e-01
-2.141293466233124554e-01
-2.205586569091793625e-01
-2.264896105167757134e-01
-2.318083617062452750e-01
-2.363942389704597191e-01
-2.401197450350083529e-01
-2.429206219024307445e-01
-2.449482201780825152e-01
-2.459851952654915630e-01
-2.457828882626750255e-01
-2.441134958078882422e-01
-2.407700700796284454e-01
-2.355665187966304308e-01
-2.283376052178687221e-01
-2.189389481425524919e-01
-2.072470219101432698e-01
-1.931591564003300177e-01
-1.765935370330446452e-01
-1.574892047684493535e-01
-1.358060561069717731e-01
-1.115248430892539222e-01
-8.464717329618526298e-02
-5.519550984888066392e-02
-2.321317140873446760e-02
1.123566782265839059e-02
4.806597810345125676e-02
8.717187415157595654e-02
1.284266151446717963e-01
1.716826047201915895e-01
2.167713909753302692e-01
2.635036664670664663e-01
3.116692682120747460e-01
3.610371776868541716e-01
4.113555208276422626e-01
4.623515680304614017e-01
5.137317341510262425e-01
5.651815785048788232e-01
6.163663288441071364e-01
6.669782295544769424e-01
7.164503848475528569e-01
7.641240377640429182e-01
8.093939450342003683e-01
8.517083770778645091e-01
8.905691180043865396e-01
9.255314656127423545e-01
9.562042313914559388e-01
9.822497405186297881e-01
1.003383831861900166e+00
1.019375857978506161e+00
1.030048685115243057e+00
1.035278693208474543e+00
1.034995775884126168e+00
1.029183340457698659e+00
1.017878307934257709e+00
1.001171113008428204e+00
9.792057040644249755e-01
9.521795431760110562e-01
9.203436061065223273e-01
8.840023823088450916e-01
8.435138749254841306e-01
7.992896007884621179e-01
7.517945904193871209e-01
7.015473880294095244e-01
6.491200515193175091e-01
5.951381524793982747e-01
5.402791440331924377e-01
4.849274559356855363e-01
4.293157753838382495e-01
3.738067473584243405e-01
3.187405855379157327e-01
2.644350722984361024e-01
2.111855587138555812e-01
1.592649645556469817e-01
1.089237782929818321e-01
6.039005709268524535e-02
1.386942681932173960e-02
-3.045491796493460246e-02
-7.242221400021342514e-02
-1.118941293289689165e-01
-1.487547632959966837e-01
-1.829106465483689992e-01
-2.142907410355328057e-01
-2.428464400092437137e-01
-2.685515680235925906e-01
-2.914023809349628458e-01
-3.114175659020977927e-01
-3.286382413860532981e-01
-3.431279571502169889e-01
-3.549726942602825508e-01
-3.642808650842890295e-01
-3.711833132925932976e-01
-3.758333138578799359e-01
-3.784065730551515738e-01
-3.790994173498088426e-01
-3.778910641835183659e-01
-3.748333952212020703e-01
-3.701361460937223624e-01
-3.639995869960283015e-01
-3.566145226871611507e-01
-3.481622924902487703e-01
-3.388147702925214944e-01
-3.287343645452892593e-01
-3.180740182639567037e-01
-3.069772090280138421e-01
-2.955779489810567706e-01
-2.840007848307575800e-01
-2.723607978488840065e-01
-2.607636038712894955e-01
-2.493053532979338793e-01
-2.380727310928521245e-01
-2.271429567841753705e-01
-2.165837844641210208e-01
-2.064535027890112562e-01
-1.968009349792447515e-01
-1.876654388193160494e-01
-1.790769066578068169e-01
-1.710557654074006395e-01
-1.636129765448606221e-01
-1.567500361110444607e-01
-1.504589747108982245e-01
-1.447223575134669038e-01
-1.395132842518777005e-01
-1.347953892233519912e-01
-1.305228412891997758e-01
-1.266403438748276433e-01
-1.230905800545801787e-01
-1.198581703848125013e-01
-1.169231962320148033e-01
-1.142631997862853521e-01
-1.118564750691243836e-01
-1.096820679334388760e-01
-1.077197760635409396e-01
-1.059501489751509262e-01
-1.043544880153920995e-01
-1.029148463627944654e-01
-1.016140290272930513e-01
-1.004355928502305151e-01
-9.936384650435320376e-02
-9.838385049381387359e-02
-9.748141715417069086e-02
-9.664311065238856413e-02
-9.585624698683692380e-02
-9.510889398729133193e-02
-9.438987131493281613e-02
-9.368875046234892423e-02
-9.299585475353194797e-02
-9.230225934388042175e-02
-9.159979122019790143e-02
-9.088102920069485169e-02
-9.013930393498648108e-02
-8.936869790409396330e-02
-8.856404542044371553e-02
-8.772093262786911927e-02
-8.683569750160796685e-02
-8.590542984830445983e-02
-8.492797130600759914e-02
-8.390191534417379415e-02
-8.282660726366358750e-02
-8.170214419674376449e-02
-8.052937510708635394e-02
-7.930990078977045998e-02
-7.804607387127959761e-02
-7.674099880950319141e-02
-7.539853189373602049e-02
-7.402328124468027237e-02
-7.262060681444187926e-02
-7.119662038653346015e-02
-6.975818557587226687e-02
-6.830007979771796078e-02
-6.680375811057076563e-02
-6.526778389266291169e-02
-6.369105291938986779e-02
-6.207250375477080251e-02
-6.041111775144414331e-02
-5.870591905067057414e-02
-5.695597458233120358e-02
-5.516039406493117303e-02
-5.331833000559449420e-02
-5.142897770006749081e-02
-4.949157523271718873e-02
-4.750540347653431361e-02
-4.546978609312873898e-02
-4.338408953273242830e-02
-4.124772303419804720e-02
-3.906013862500223865e-02
-3.682083112124051594e-02
-3.452933812763064880e-02
-3.218524003751066509e-02
-2.978816003284340264e-02
-2.733776408420984794e-02
-2.483376095081368806e-02
-2.227590218047842408e-02
-1.966398210965275561e-02
-1.699783786340358649e-02
-1.427734935541985495e-02
-1.150243928801120141e-02
-8.673073152111965278e-03
-5.789259227274579089e-03
-2.851048581674009430e-03
1.414649278947410771e-04
3.188144656011193678e-03
6.288811168637387095e-03
9.443242243112659473e-03
1.265117286815625741e-02
1.591229524386189587e-02
1.922625878170597380e-02
2.259267010454207858e-02
2.601109304660237376e-02
2.948104865349909787e-02
3.300201518221851371e-02
3.657342810113006770e-02
4.019468008998006159e-02
4.386512103989514966e-02
4.758405805337573291e-02
5.135075544430567351e-02
5.516443473794535590e-02
5.902427467093596114e-02
6.292941119129191740e-02
6.687893745841128057e-02
7.087190384306907287e-02
7.490731792742072459e-02
7.898414450499446904e-02
8.310701403250131403e-02
8.728568562398963948e-02
9.151695107513907468e-02
9.579720821664272634e-02
1.001228883570741690e-01
1.044904562828811168e-01
1.088964102583878102e-01
1.133372820257879665e-01
1.178096368051572140e-01
1.223100732944432112e-01
1.268352236694721968e-01
1.313817535839384432e-01
1.359463621694184665e-01
1.405257820353615905e-01
1.451167792690944980e-01
1.497161534358127932e-01
1.543207375785941027e-01
1.589273982183886380e-01
1.635330353540240811e-01
1.681345824621974794e-01
1.727290064974870143e-01
1.773133078923442296e-01
1.818845205570978063e-01
1.864397118799457909e-01
1.909759827269675858e-01
1.954904674421156230e-01
1.999803338472195824e-01
2.044427832419787316e-01
2.088750504039733613e-01
2.132744035886571243e-01
2.176381445293606998e-01
2.219636084372843543e-01
2.262481640015093776e-01
2.304892133889905326e-01
2.346841922445596085e-01
2.388305696909179821e-01
2.429258483286477199e-01
2.469675642362050283e-01
2.509532869699222513e-01
2.548806195640022088e-01
2.587471985305281885e-01
2.625506938594568407e-01
2.662888090186217305e-01
2.699592809537271210e-01
2.735598800883570769e-01
2.770884103239693586e-01
2.805427090398987522e-01
2.839206470933500759e-01
2.872201288194088376e-01
2.904390920310337965e-01
2.935755080190604049e-01
2.966273815521953683e-01
2.995927508770246384e-01
3.024696877180080845e-01
3.052562972774823802e-01
3.079507182356548967e-01
3.105511227506132510e-01
3.130557164583178675e-01
3.154627384726064188e-01
3.177704613851879412e-01
3.199771912656504957e-01
3.220812676614558390e-01
3.240810635979423093e-01
3.259749855783207195e-01
3.277614735836794635e-01
3.294390010729820739e-01
3.310060749830670002e-01
3.324612357286468312e-01
3.338030572023109599e-01
3.350301467745236961e-01
3.361411452936245992e-01
3.371347270858273681e-01
3.380095999552225061e-01
3.387645051837753218e-01
3.393982175313262628e-01
3.399095452355906932e-01
3.402973300121594491e-01
3.405604470544989493e-01
3.406978050339509734e-01
3.407083460997318847e-01
3.405910458789337403e-01
3.403449134765239581e-01
3.399689914753446507e-01
3.394623559361142906e-01
3.388241163974254899e-01
3.380534158757464436e-01
3.371494308654205962e-01
3.361102558515574046e-01
3.349211426644532752e-01
3.335807932451382296e-01
3.320931364573547206e-01
3.304620648587339726e-01
3.286914347007917625e-01
3.267850659289313064e-01
3.247467421824411504e-01
3.225802107944991670e-01
3.202891827921678924e-01
3.178773328963966360e-01
3.153482995220202589e-01
3.127056847777639481e-01
3.099530544662357778e-01
3.070939380839320387e-01
3.041318288212340182e-01
3.010701835624132183e-01
2.979124228856245837e-01
2.946619310629106092e-01
2.913220560601985643e-01
2.878961095373074874e-01
2.843873668479380834e-01
2.807990670396793842e-01
2.771344128540053076e-01
2.733965707262814293e-01
2.695886707857546583e-01
2.657138068555608967e-01
2.617750364527218210e-01
2.577753807881445480e-01
2.537178247666278530e-01
2.496053169868519550e-01
2.454407697413854006e-01
2.412270590166813999e-01
2.369670244930854874e-01
2.326634695448243084e-01
2.283191612400129467e-01
2.239368303406510385e-01
2.195191713026304337e-01
2.150688422757245366e-01
2.105884651035947464e-01
2.060806253237870145e-01
2.015478721677402829e-01
1.969927185607738274e-01
1.924176411220955840e-01
1.878250801647982637e-01
1.832174396958670126e-01
1.785970874161678656e-01
1.739663547204550742e-01
1.693275366973677754e-01
1.646828921294378745e-01
1.600346434930774997e-01
1.553849769585875507e-01
1.507360423901538127e-01
1.460899533458545063e-01
1.414487870776480749e-01
1.368145845313823994e-01
1.321893503467891362e-01
1.275750528574933762e-01
1.229736240909999889e-01
1.183869597687030595e-01
1.138169193058813367e-01
1.092653258117056714e-01
1.047339660892279145e-01
1.002245906353885774e-01
9.573891364101244639e-02
9.127861299081740931e-02
8.684533026340146566e-02
8.244067073125188605e-02
7.806620336073955002e-02
7.372346081212927116e-02
6.941393943956530865e-02
6.513909929108108177e-02
6.090036410859472893e-02
5.669912132791665726e-02
5.253672207873821831e-02
4.841448118463903549e-02
4.433367716308411755e-02
4.029555222542990922e-02
3.630131227691429929e-02
3.235212691666355944e-02
2.844912943768912461e-02
2.459341682689381026e-02
2.078604976506204238e-02
1.702805262686662990e-02
1.332041348086565602e-02
9.664084089507862796e-03
6.059979909124879605e-03
2.508980089935497482e-03
-9.880725239556076289e-04
-4.430371394553156428e-03
-7.817146289979204354e-03
-1.114766328446825661e-02
-1.442122475836915552e-02
-1.763716939814019558e-02
-2.079487219635722806e-02
-2.389374445170783234e-02
-2.693323376899475763e-02
-2.991282405912942810e-02
-3.283203553914171291e-02
-3.569042473217237665e-02
-3.848758446747735373e-02
-4.122314388042253031e-02
-4.389676841249035011e-02
-4.650815981127548460e-02
-4.905705613048749747e-02
-5.154323172994551561e-02
-5.396631481476632519e-02
-5.632570004311066025e-02
-5.862229698735266226e-02
-6.085718231833292524e-02
-6.303142313145260189e-02
-6.514607694666918469e-02
-6.720219170849844881e-02
-6.920080578601078836e-02
-7.114294797283687855e-02
-7.302963748716367887e-02
-7.486188397173637599e-02
-7.664068749385510859e-02
-7.836703854538007441e-02
-8.004191804272775546e-02
-8.166629732687280541e-02
-8.324113816334527405e-02
-8.476739274223460407e-02
-8.624600367818680002e-02
-8.767790401040620463e-02
-8.906401720265255673e-02
-9.040525714324448847e-02
-9.170252814505791550e-02
-9.295672494552648102e-02
-9.416873270663950191e-02
-9.533942701494541039e-02
-9.646967388154953360e-02
-9.756032974211498177e-02
-9.861224145686064979e-02
-9.962624631056471447e-02
-1.006031720125618034e-01
-1.015438366967446049e-01
-1.024490489215619249e-01
-1.033196076700210742e-01
-1.041563023496865359e-01
-1.049599127926802988e-01
-1.057312092556808580e-01
-1.064709524199251023e-01
-1.071798933912070373e-01
-1.078587736998781743e-01
-1.085083253008466420e-01
-1.091292705735788515e-01
-1.097223223220982757e-01
-1.102881837749861149e-01
-1.108275485853800202e-01
-1.113411008309759254e-01
-1.118295150140268812e-01
-1.122934560613433885e-01
-1.127335793242933981e-01
-1.131505305788016447e-01
-1.135449460253510345e-01
-1.139174522889815355e-01
-1.142686664192906210e-01
-1.145991958904328811e-01
-1.149096386011205229e-01
-1.152005828746229810e-01
-1.154726074587675289e-01
-1.157262815259380573e-01
-1.159621646730765732e-01
-1.161808069216820338e-01
-1.163827487178110687e-01
-1.165685209320773685e-01
-1.167386448596522963e-01
-1.168936322202644984e-01
-1.170339851582001267e-01
-1.171601962423023946e-01
-1.172727484659722430e-01
-1.173721152471678963e-01
-1.174587604284050291e-01
-1.175331382767564325e-01
-1.175956934838526258e-01
-1.176468611658813557e-01
-1.176870668635877637e-01
-1.177167265422743858e-01
-1.177362465918012080e-01
-1.177460238265854997e-01
-1.177464454856020359e-01
-1.177378892323827642e-01
-1.177207231550174149e-01
-1.176953057661527247e-01
-1.176619860029929354e-01
-1.176211032272997392e-01
-1.175729872253922226e-01
-1.175179582081468665e-01
-1.174563268109972691e-01
-1.173883940939349224e-01
-1.173144515415082689e-01
-1.172347810628233677e-01
-1.171496549915435059e-01
-1.170593360858895871e-01
-1.169640775286396872e-01
-1.168641229271293880e-01
-1.167597063132515545e-01
-1.166510521434567238e-01
-1.165383752987523280e-01
-1.164218810847036378e-01
-1.163017652314330963e-01
-1.161782138936207076e-01
-1.160514036505035929e-01
-1.159215015058764897e-01
-1.157886648880913638e-01
-1.156530416500577418e-01
-1.155147700692425450e-01
-1.153739788476697559e-01
-1.152307871119210847e-01
-1.150853044131355807e-01
-1.149376307270096320e-01
-1.147878564537970214e-01
-1.146360624183087040e-01
-1.144823198699135292e-01
-1.143266904825372965e-01
-1.141692263546633113e-01
-1.140099700093323287e-01
-1.138489543941424986e-01
-1.136862028812491987e-01
-1.135217292673654232e-01
-1.133555377737614500e-01
-1.131876230462649513e-01
-1.130175337018025084e-01
-1.128439917354257527e-01
-1.126671515227848919e-01
-1.124872692017644393e-01
-1.123045936094063668e-01
-1.121193662819100489e-01
-1.119318214546323742e-01
-1.117421860620879670e-01
-1.115506797379486881e-01
-1.113575148150439120e-01
-1.111628963253604718e-01
-1.109670220000430474e-01
-1.107700822693933884e-01
-1.105722602628709250e-01
-1.103737318090924902e-01
-1.101746654358326527e-01
-1.099752223700231624e-01
-1.097755565377535047e-01
-1.095758145642704018e-01
-1.093761357739783113e-01
-1.091766521904392606e-01
-1.089774885363724577e-01
-1.087787622336546800e-01
-1.085805834033204964e-01
-1.083830548655616566e-01
-1.081862721397275351e-01
-1.079903234443248539e-01
-1.077952896970181262e-01
-1.076012445146291574e-01
-1.074082542131370999e-01
-1.072163778076788976e-01
-1.070256670125489529e-01
-1.068361662411989599e-01
-1.066479126062382377e-01
-1.064609359194335081e-01
-1.062752586917092845e-01
-1.060908961331473166e-01
-1.059078561529867013e-01
-1.057261393596242161e-01
-1.055457390606144297e-01
-1.053666412626688698e-01
-1.051888246716568553e-01
-1.050122606926051638e-01
-1.048369134296980310e-01
-1.046627396862772064e-01
-1.044896889648420091e-01
-1.043177034670490499e-01
-1.041467180937126757e-01
-1.039766604448045251e-01
-1.038074508194539725e-01
-1.036390022159474622e-01
-1.034712203317295631e-01
-1.033040035634016363e-01
-1.031372430067232226e-01
-1.029708224566107111e-01
-1.028046184071385039e-01
-1.026385000515382950e-01
-1.024723292821991261e-01
-1.023059606906677188e-01
-1.021392415676481980e-01
-1.019720119030024796e-01
-1.018041043857494943e-01
-1.016353444040659637e-01
-1.014655500452859571e-01
-1.012945320959013351e-01
-1.011220940415610281e-01
-1.009480320670718689e-01
-1.007721350563976492e-01
-1.005941845926604516e-01
-1.004139549581390956e-01
-1.002312131342703028e-01
-1.000457188016480869e-01
-9.985722434002425318e-02
-9.966547482830778737e-02
-9.947020804456524479e-02
-9.927115446602063908e-02
-9.906803726905577534e-02
-9.886057232920969495e-02
-9.864846822117884217e-02
-9.843142621881728616e-02
-9.820914029513683197e-02
-9.798129712230629895e-02
-9.774757607165240891e-02
-9.750764921365889792e-02
-9.726118131796773758e-02
-9.700782985337780273e-02
-9.674724498784559312e-02
-9.647906958848501136e-02
-9.620293922156780697e-02
-9.591848215252296583e-02
-9.562531934593682115e-02
-9.532306446555377510e-02
-9.501132387427485559e-02
-9.468969663415915949e-02
-9.435777450642368613e-02
-9.401514195144172747e-02
-9.366137612874542162e-02
-9.329604689702308828e-02
-9.291871681412150474e-02
-9.252894113704507317e-02
-9.212626782195443287e-02
-9.171023752416901376e-02
-9.128038359816553760e-02
-9.083623209757729633e-02
-9.038106556008895787e-02
-8.992132927949375576e-02
-8.945377836342599531e-02
-8.897489065333985536e-02
-8.848123004720720441e-02
-8.796944649952070927e-02
-8.743627602129222520e-02
-8.687854068005163022e-02
-8.629314859984993369e-02
-8.567709396125544608e-02
-8.502745700135738716e-02
-8.434140401376433172e-02
-8.361618734860226665e-02
-8.284914541251853226e-02
-8.203770266867949079e-02
-8.117936963676913864e-02
-8.027174289299326970e-02
-7.931250507007420181e-02
-7.829942485725566170e-02
-7.723035700030106421e-02
-7.610324230149034808e-02
-7.491610761962513854e-02
-7.366706587002713746e-02
-7.235431602453368249e-02
-7.097614311150579613e-02
-6.953091821581947052e-02
-6.801709847887327243e-02
-6.643322709858545672e-02
-6.477793332938935889e-02
-6.304993248224177727e-02
-6.124802592461897621e-02
-5.937110108051180113e-02
-5.741813143043694723e-02
-5.538817651142352583e-02
-5.328038191702522131e-02
-5.109397929731518406e-02
-4.882828635888003532e-02
-4.648270686483157998e-02
-4.405673063480108897e-02
-4.154993354493269342e-02
-3.896197752789859470e-02
-3.629261057288124537e-02
-3.354166672558916984e-02
-3.070906608825069162e-02
-2.779481481960560663e-02
-2.479900513492072633e-02
-2.172181530598232824e-02
-1.856350966108794021e-02
-1.532443858506510326e-02
-1.200503851924961118e-02
-8.605831961505105987e-03
-5.127427466214640184e-03
-1.570519644271739512e-03
2.064110836902277590e-03
5.775597253365849504e-03
9.562986824668384678e-03
1.342524071382666939e-02
1.736123402735151311e-02
2.136975581522443379e-02
2.544950907090726133e-02
2.959911073135351733e-02
3.381709167698637719e-02
3.810189673170982783e-02
4.245188466291971441e-02
4.686532818147709500e-02
5.134082557257779733e-02
5.588743989715572180e-02
6.050144331260598474e-02
6.517203701723017772e-02
6.988864621577162151e-02
7.464092011942785598e-02
7.941873194586351881e-02
8.421217891918014731e-02
8.901158226995081746e-02
9.380748723519011234e-02
9.859066305836672317e-02
1.033521029894163279e-01
1.080830242847162781e-01
1.127748682070981445e-01
1.174193000258600961e-01
1.220082090167381450e-01
1.265337084619388985e-01
1.309881356501111371e-01
1.353640518763575828e-01
1.396542424422475559e-01
1.438517166557888860e-01
1.479497078314583325e-01
1.519416732901764933e-01
1.558212943593177968e-01
1.595824763727217155e-01
1.632193486706714491e-01
1.667262645999049164e-01
1.700978015136233035e-01
1.733287607714698586e-01
1.764141677395544283e-01
1.793492717904316969e-01
1.821295463031112893e-01
1.847506886630647660e-01
1.872086202622100792e-01
1.894994864989201222e-01
1.916196567780281690e-01
1.935657245108136637e-01
1.953345071150177636e-01
1.969230460148302386e-01
1.983286066408965764e-01
1.995486784303189820e-01
2.005809748266511594e-01
2.014234332799010874e-01
2.020742152465332397e-01
2.025317061894639226e-01
2.027945155780653819e-01
2.028614768881630281e-01
2.027316476020369906e-01
2.024043092084215623e-01
2.018789672025048665e-01
2.011553510859309668e-01
2.002334143667950928e-01
1.991133345596505233e-01
1.977955131855005932e-01
1.962805757718059096e-01
1.945693718524821314e-01
1.926629749678946402e-01
1.905626826648670891e-01
1.882673537455998858e-01
1.857754692189802492e-01
1.830966322188106732e-01
1.802408190506848973e-01
1.772178285022288913e-01
1.740372818430950819e-01
1.707086228249525828e-01
1.672411176815045142e-01
1.636438551284797871e-01
1.599257463636235554e-01
1.560955250667193095e-01
1.521617473995621195e-01
1.481327920059837266e-01
1.440168600118406639e-01
1.398219750250047078e-01
1.355559831353837508e-01
1.312265529149112542e-01
1.268411754175351458e-01
1.224071641792439102e-01
1.179316552180358357e-01
1.134216070339466587e-01
1.088838006090377952e-01
1.043248394073837959e-01
9.975114937509721447e-02
9.516897894031572935e-02
9.058439901319043086e-02
8.600330298591429834e-02
8.143140673268933760e-02
7.687424860975555774e-02
7.233718945537814804e-02
6.782541258983582066e-02
6.334392381544490247e-02
5.889755141654690052e-02
5.449094615949723330e-02
5.012858129269248675e-02
4.581475254653916140e-02
4.155357813348092844e-02
3.734899874798647268e-02
3.320477756653944512e-02
2.912450024765939061e-02
2.511157493189186685e-02
2.116923224179684260e-02
1.730052528197395523e-02
1.350832963903464412e-02
9.795343381625964962e-03
6.164087060420320174e-03
2.616903708106188553e-03
-8.440411605932784944e-04
-4.216759548929360779e-03
-7.499440978136928670e-03
-1.069045248741329335e-02
-1.378833863394213211e-02
-1.679182149287294923e-02
-1.969980065732973573e-02
-2.251135323841929603e-02
-2.522573386521476113e-02
-2.784237468476413735e-02
-3.036160755215633333e-02
-3.280157597247956858e-02
-3.516659844687974878e-02
-3.745242158760697659e-02
-3.965563130086441346e-02
-4.177365278681460792e-02
-4.380475053956695008e-02
-4.574802834718444400e-02
-4.760342929168837056e-02
-4.937173574904640816e-02
-5.105456938918567777e-02
-5.265439117598175178e-02
-5.417450136726376098e-02
-5.561903951481778074e-02
-5.699298446437900401e-02
-5.830215435563607107e-02
-5.955320662223406725e-02
-6.075363799176675128e-02
-6.191178448578543714e-02
-6.303682141979111142e-02
-6.413876340323831915e-02
-6.522846433953743972e-02
-6.631761742604913579e-02
-6.741875515408712882e-02
-6.854524930892136325e-02
-6.971131096977067898e-02
-7.093199050981141562e-02
-7.222317759616975197e-02
-7.360160118992487011e-02
-7.508482954611273019e-02
-7.669127021371729969e-02
-7.844017003568126700e-02
-8.035161514889616052e-02
-8.244653098420617887e-02
-8.474668226641401958e-02
-8.727467301427044299e-02
-9.005394654047821357e-02
-9.310878545170081511e-02
-9.646382842212680719e-02
-1.001359894368485381e-01
-1.041416556916889280e-01
-1.084932453221359450e-01
-1.131966580206762440e-01
-1.182512750367721854e-01
-1.236499591768715489e-01
-1.293790548044237987e-01
-1.354183878398454444e-01
-1.417412657605609527e-01
-1.483144776009656107e-01
-1.550982939524408466e-01
-1.620464669633730759e-01
-1.691062303391178412e-01
-1.762182993420170207e-01
-1.833168707914184792e-01
-1.903296230636319919e-01
-1.971777160919790106e-01
-2.037757913667492815e-01
-2.100319719352204406e-01
-2.158478624016734182e-01
-2.211185489273593263e-01
-2.257325992305180828e-01
-2.295720625863885700e-01
-2.325124698271817669e-01
-2.344228333421075339e-01
-2.351656470773542118e-01
-2.345968865361012234e-01
-2.325660087785130503e-01
-2.289159524217417307e-01
-2.235783473519886155e-01
-2.167295876382797359e-01
-2.081747524185930676e-01
-1.977035746669539573e-01
-1.851324854369505724e-01
-1.703046138617198002e-01
-1.530897871538993704e-01
-1.333845306057065416e-01
-1.111120675889085141e-01
-8.622231955475362364e-02
-5.869190603411467144e-02
-2.852414463731289818e-02
4.250948945717203387e-03
3.957666094549050495e-02
7.736957951307604775e-02
1.175195947199090263e-01
1.598898985578742771e-01
2.043169849394300686e-01
2.506106496973390385e-01
2.985539905849836639e-01
3.479034072760827101e-01
3.983886013648089142e-01
4.497125763659278741e-01
5.015516377145310400e-01
5.535553927661661655e-01
6.053467507969788608e-01
6.565219230033888520e-01
7.066504225024580199e-01
7.552750643315701007e-01
8.019119654485723503e-01
8.461018825893295014e-01
8.873934101379655770e-01
9.253033489604641781e-01
9.593991717253315121e-01
9.892994630248822530e-01
1.014673919375479461e+00
1.035243349217342068e+00
1.050779672914639473e+00
1.061105922755519071e+00
1.066096242952018436e+00
1.065675889640130602e+00
1.059821230879781417e+00
1.048559746654843750e+00
1.031970028873095746e+00
1.010181781366279008e+00
9.833758198900904857e-01
9.517840721240883317e-01
9.156895776718366742e-01
8.754264880608512156e-01
8.313800667424743329e-01
7.839866890921346476e-01
7.337338424090330546e-01
6.811601259164327127e-01
6.268552507615409164e-01
5.714600400153556636e-01
5.156664286729543134e-01
4.599629749545919299e-01
4.045044980744102459e-01
3.496312821595753961e-01
2.956621756266392120e-01
2.428922563830318015e-01
1.915928318269081165e-01
1.420114388470182787e-01
9.437184382298030583e-02
4.887404262513556086e-02
5.694260614435564527e-03
-3.501504735728006024e-02
-7.312519694759062050e-02
-1.085312743232348387e-01
-1.411521361602312008e-01
-1.709304096439522858e-01
-1.978324924689531250e-01
-2.218485528390682637e-01
-2.429925294674640801e-01
-2.613021315764963992e-01
-2.768388388978613168e-01
-2.896879016724738798e-01
-2.999583406505281213e-01
-3.077829470915139365e-01
-3.133182827641629031e-01
-3.167135868318901037e-01
-3.178730317119303761e-01
-3.169457364832832802e-01
-3.141508634734896943e-01
-3.096981387599681557e-01
-3.037878521700187462e-01
-2.966108572808012211e-01
-2.883485714193662619e-01
-2.791729756626444292e-01
-2.692466148374171864e-01
-2.587225975203757411e-01
-2.477445960380507683e-01
-2.364468464668771086e-01
-2.249541486331663176e-01
-2.133818661130751082e-01
-2.018359262326772097e-01
-1.904128200678808225e-01
-1.791996024445013658e-01
-1.682738919382290865e-01
-1.577038708746010820e-01
-1.475482853290601137e-01
-1.378564451269225777e-01
-1.286682238433556891e-01
-1.200140588034360190e-01
-1.119149510820841020e-01
-1.043824655041197813e-01
-9.741873064423683948e-02
-9.101643882698662313e-02
-8.515884612681523524e-02
-7.981977236804238540e-02
-7.496355263869813879e-02
-7.049771607865468193e-02
-6.635285440199278906e-02
-6.251199388292011383e-02
-5.895853609331963563e-02
-5.567625790274122188e-02
-5.264931147842083492e-02
-4.986222428526976280e-02
-4.729989908586840208e-02
-4.494761394048307768e-02
-4.279102220704766868e-02
-4.081615254117881841e-02
-3.900940889616871798e-02
-3.735757052298138703e-02
-3.584779197026199959e-02
-3.446760308433166609e-02
-3.320490900918404709e-02
-3.204799018649406861e-02
-3.098550235560865174e-02
-3.000647655355420662e-02
-2.910031911503307978e-02
-2.825681167242183323e-02
-2.746611115577568540e-02
-2.671874979282595763e-02
-2.600563510897857533e-02
-2.531804992731817583e-02
-2.464765236860344544e-02
-2.398647585127133830e-02
-2.332692909143491145e-02
-2.266179610288199253e-02
-2.198423619707834398e-02
-2.128778398316638620e-02
-2.056634936796281066e-02
-1.981421755596335377e-02
-1.902604904933752339e-02
-1.819687964793287316e-02
-1.732212044927383676e-02
-1.639755784855861931e-02
-1.541935353866419334e-02
-1.438404451014407837e-02
-1.328854305122528778e-02
-1.213013674781521223e-02
-1.090648848349329292e-02
-9.615636439518571166e-03
-8.255994094826690777e-03
-6.826350226025901247e-03
-5.325868907404551766e-03
-3.754089510927594020e-03
-2.110926706231808225e-03
-3.966704606364612751e-04
1.388013960868905716e-03
3.242085995614041316e-03
5.164129783251925065e-03
7.152354165764207572e-03
9.204592687451329525e-03
1.131830359493701810e-02
1.349056983717439318e-02
1.571809906543242263e-02
1.799722363331163200e-02
2.032390059673028215e-02
2.269371171393014253e-02
2.510186344548281934e-02
2.754318695427743213e-02
3.001213810552644246e-02
3.250279746677264825e-02
3.500913096698388127e-02
3.755150139460389225e-02
4.014640349071130210e-02
4.279441564059072167e-02
4.549605193780731360e-02
4.825176218419274798e-02
5.106193188985158615e-02
5.392688227316960736e-02
5.684687026079554562e-02
5.982208848766218390e-02
6.285266529696742488e-02
6.593866474018272861e-02
6.908008657706105060e-02
7.227686627562057708e-02
7.552887501215260757e-02
7.883591967123043665e-02
8.219774284568920342e-02
8.561402283664915069e-02
8.908437365349530790e-02
9.260834501388520712e-02
9.618542234375992983e-02
9.981502677732401185e-02
1.034965151570554909e-01
1.072291800337151768e-01
1.110122496663247249e-01
1.148448880221921709e-01
1.187261947768887271e-01
1.226552053142587750e-01
1.266308907264311889e-01
1.306521578137971318e-01
1.347178490850208243e-01
1.388267427570515355e-01
1.429775527550967151e-01
1.471689287126519696e-01
1.513994559714755272e-01
1.556676555815982299e-01
1.599719843013365228e-01
1.643108345972680295e-01
1.686825346442443196e-01
1.730853483254016778e-01
1.775174752321340144e-01
1.819770506641246177e-01
1.864621456293182877e-01
1.909707668439328820e-01
1.955008567324718616e-01
2.000502934276959799e-01
2.046168907706554796e-01
2.091983983106618927e-01
2.137925013052998091e-01
2.183968207204400880e-01
2.230089132302138788e-01
2.276262712170261659e-01
2.322463227715676481e-01
2.368664316927859836e-01
2.414838974879182087e-01
2.460959553724629822e-01
2.506997762701920207e-01
2.552924668131626440e-01
2.598710693416934614e-01
2.644325619043763620e-01
2.689738582580889492e-01
2.734918078679660081e-01
2.779831959074311465e-01
2.824447432581703721e-01
2.868754069390661021e-01
2.912805031377805332e-01
2.956565681737974849e-01
2.999992510250739652e-01
3.043042973055637423e-01
3.085675492651903662e-01
3.127849457898781438e-01
3.169525224015242726e-01
3.210664112580123852e-01
3.251228411532214313e-01
3.291181375170050272e-01
3.330487224152016701e-01
3.369111145496461734e-01
3.407019292581439096e-01
3.444178785144997867e-01
3.480557709284931578e-01
3.516125117458889227e-01
3.550851028484468541e-01
3.584706427539020579e-01
3.617663266159757418e-01
3.649694462243819881e-01
3.680773900048095459e-01
3.710876430189428143e-01
3.739977869644436348e-01
3.768055001749588406e-01
3.795085576201281397e-01
3.821048309055690151e-01
3.845922882728841641e-01
3.869689945996682701e-01
3.892331113994924596e-01
3.913828968219210669e-01
3.934167056524983108e-01
3.953329893127529582e-01
3.971302958602047628e-01
3.988072699883531413e-01
4.003626530266830574e-01
4.017952829406690185e-01
4.031040943317650838e-01
4.042881184374156334e-01
4.053464831310464866e-01
4.062784129220691209e-01
4.070832289558828920e-01
4.077603490138691500e-01
4.083092875133957911e-01
4.087296555078161475e-01
4.090211606864677663e-01
4.091836073746748514e-01
4.092168965337451558e-01
4.091210257609728673e-01
4.088960892896362775e-01
4.085422779889995581e-01
4.080598793643124278e-01
4.074492775568082648e-01
4.067109533437077706e-01
4.058454841382144185e-01
4.048535439895185606e-01
4.037359035827962073e-01
4.024934302392055852e-01
4.011270879158933544e-01
3.996379372059910562e-01
3.980271353386120037e-01
3.962959361788598311e-01
3.944456902278175026e-01
3.924778446225580808e-01
3.903939431361393986e-01
3.881956261775996175e-01
3.858846307919674423e-01
3.834627906602567915e-01
3.809320360994605803e-01
3.782943940625654866e-01
3.755519881385345204e-01
3.727070385523223450e-01
3.697611645608206432e-01
3.667075768707593886e-01
3.635471922944205625e-01
3.602841259535308760e-01
3.569224425220605124e-01
3.534661562262448875e-01
3.499192308445591149e-01
3.462855797077409870e-01
3.425690656987808724e-01
3.387735012529118350e-01
3.349026483576298396e-01
3.309602185526835383e-01
3.269498729300638340e-01
3.228752221340284168e-01
3.187398263610735638e-01
3.145471953599590087e-01
3.103007884316969500e-01
3.060040144295415043e-01
3.016602317590104665e-01
2.972727483778747626e-01
2.928448217961460154e-01
2.883796590761044110e-01
2.838804168322670574e-01
2.793502012314155181e-01
2.747920679925841547e-01
2.702090223870480257e-01
2.656040192383469778e-01
2.609799629222734341e-01
2.563397073668606252e-01
2.516860560524105672e-01
2.470217620114617540e-01
2.423495278288174681e-01
2.376720056415339011e-01
2.329917971389073861e-01
2.283114535624994890e-01
2.236334757061246847e-01
2.189603139158373679e-01
2.142943680899614955e-01
2.096379876790568364e-01
2.049934716859485029e-01
2.003630686657142945e-01
1.957489767256723745e-01
1.911533435254100244e-01
1.865782662767506705e-01
1.820257917437828610e-01
1.774979162428480528e-01
1.729965856425278448e-01
1.685236953636688462e-01
1.640810903793703535e-01
1.596705652149724708e-01
1.552938639480836436e-01
1.509526802085495722e-01
1.466486571784801907e-01
1.423833875922380088e-01
1.381584137364271214e-01
1.339752274499154128e-01
1.298352701238234541e-01
1.257399327015135126e-01
1.216905556786154197e-01
1.176884291029967056e-01
1.137347925747888011e-01
1.098308352463754911e-01
1.059776958223833665e-01
1.021764625597013643e-01
9.842817326747138607e-02
9.473381530707819520e-02
9.109432559217212066e-02
8.751059058864363305e-02
8.398344631464504939e-02
8.051367834058159589e-02
7.710202178910202653e-02
7.374916133511677518e-02
7.045573120578885185e-02
6.722231518052551591e-02
6.404944659099787163e-02
6.093760832111860815e-02
5.788723280706176144e-02
5.489870203725361053e-02
5.197234755236501691e-02
4.910845044532802239e-02
4.630853523581651698e-02
4.357832002070216593e-02
4.091749382368459198e-02
3.832494157061200335e-02
3.579955732868100871e-02
3.334024430642890113e-02
3.094591485372755191e-02
2.861549046179689970e-02
2.634790176319734556e-02
2.414208853182464587e-02
2.199699968292379015e-02
1.991159327307273630e-02
1.788483650019673243e-02
1.591570570356160008e-02
1.400318636376945980e-02
1.214627310276850114e-02
1.034396968384804216e-02
8.595289011633533427e-03
6.899253132098215335e-03
5.254893232550017501e-03
3.661249641642827513e-03
2.117371829371106351e-03
6.223184070666687440e-04
-8.248428725934342509e-04
-2.225035115591411650e-03
-3.579172286571674633e-03
-4.888159208832953961e-03
-6.152891564337459318e-03
-7.374255893702774678e-03
-8.553129596205411023e-03
-9.690380929783970476e-03
-1.078686901103276252e-02
-1.184344381520502365e-02
-1.286094617621569292e-02
-1.384020778663513918e-02
-1.478205119769571141e-02
-1.568728981928624311e-02
-1.655672791995449478e-02
-1.739116062690965192e-02
-1.819137392601699599e-02
-1.895814466180123503e-02
-1.969224053744744740e-02
-2.039442011479758454e-02
-2.106543281435441228e-02
-2.170601891527801364e-02
-2.231690955538739862e-02
-2.289882673116200307e-02
-2.345248329773846896e-02
-2.397858296891258734e-02
-2.447782031713996442e-02
-2.495088077353391220e-02
-2.539844062786783541e-02
-2.582116702857278900e-02
-2.621971798273903254e-02
-2.659474235611664072e-02
-2.694687987311322752e-02
-2.727676111679566695e-02
-2.758500752889048169e-02
-2.787223140978195568e-02
-2.813903591851413255e-02
-2.838601507278942782e-02
-2.861375374896890644e-02
-2.882282768207339307e-02
-2.901380346578164016e-02
-2.918723855243154919e-02
-2.934368125302039276e-02
-2.948367073720353781e-02
-2.960773703329588891e-02
-2.971640102827072250e-02
-2.981017446776035307e-02
-2.988955995605624416e-02
-2.995505095610817570e-02
-3.000713178952518767e-02
-3.004627763657524708e-02
-3.007295453618485936e-02
-3.008761938593962348e-02
-3.009071994208395440e-02
-3.008269481952119406e-02
-3.006397349181338940e-02
