-2.734827903887108835e+00
-2.680579479225996931e+00
-2.532669193290435938e+00
-2.313349528152078172e+00
-2.044872965882581273e+00
-1.749491988553598887e+00
-1.449459078236786880e+00
-1.167026717003800229e+00
-9.244473869262941346e-01
-7.439735700759239068e-01
-6.478577485243471878e-01
-6.514968757287592505e-01
-7.421145102533378557e-01
-8.996979246493881366e-01
-1.104234386317546779e+00
-1.335711162658461237e+00
-1.574115521072768864e+00
-1.799434728961114116e+00
-1.991656053724137898e+00
-2.130766762762482447e+00
-2.196754123476788223e+00
-2.175234281798709812e+00
-2.075589689169407670e+00
-1.913474248728533222e+00
-1.704541898387952337e+00
-1.464446576059537986e+00
-1.208842219655155148e+00
-9.533827670866761306e-01
-7.137221918233840334e-01
-5.055310280960956248e-01
-3.445226741099967072e-01
-2.414926717945391488e-01
-1.858732930733322242e-01
-1.613053057236921717e-01
-1.514293719695318785e-01
-1.398861540347624555e-01
-1.103163141432981220e-01
-4.636051451905265353e-02
6.834058261406283918e-02
2.501463150321359130e-01
5.154160205112514603e-01
8.746108185749177366e-01
1.311903261282310940e+00
1.804144571775164962e+00
2.328185665054209430e+00
2.860877456120178852e+00
3.379070859973808183e+00
3.859616791615827047e+00
4.279366166046972175e+00
4.615169898267977189e+00
4.843878903279573045e+00
4.948839653034792008e+00
4.943144974709017703e+00
4.848397775179453362e+00
4.686201643047653853e+00
4.478160166915182927e+00
4.245876298328107090e+00
4.010901757336210238e+00
3.794700305609539637e+00
3.618727042757349022e+00
3.504437068388897458e+00
3.468583124646729576e+00
3.505791044887552665e+00
3.604184302884887892e+00
3.751885495004458893e+00
3.937017217611982201e+00
4.147702067073175236e+00
4.372062639753760749e+00
4.598221532019456603e+00
4.814301340235984661e+00
5.008424660769057013e+00
5.170903485258770971e+00
5.302635923806006346e+00
5.407715355136238244e+00
5.490235825577927997e+00
5.554291381459544930e+00
5.603976069109556590e+00
5.643383934856430528e+00
5.676609025028633404e+00
5.707745385954632766e+00
5.740887063962896164e+00
5.779134490555838610e+00
5.820651120198911954e+00
5.862069957351753402e+00
5.900031674046750219e+00
5.931425636000128065e+00
5.953429891208662283e+00
5.963238674301901909e+00
5.958046219909393315e+00
5.935046762660682873e+00
5.891434537185316067e+00
5.825034417284672195e+00
5.736891461183863505e+00
5.629075884801023832e+00
5.503658337273755308e+00
5.362709467739646740e+00
5.208299925336298486e+00
5.042500359201307347e+00
4.867381418472269239e+00
4.685013752286779187e+00
4.497468009782433995e+00
4.306709640214926971e+00
4.114153635396911035e+00
3.921040995696370768e+00
3.728614241146281927e+00
3.538115891779630040e+00
3.350788467629388201e+00
3.167874488728547711e+00
2.990616475110077666e+00
2.820256946806971143e+00
2.658038423852198129e+00
2.504298326434537092e+00
2.354499650944715139e+00
2.202585131308813615e+00
2.042589772901695966e+00
1.868551122252392283e+00
1.674506725889953085e+00
1.454494130343412017e+00
1.202550882141807165e+00
9.127145278141726159e-01
5.790226138895557817e-01
1.979542781490765679e-01
-2.204739862497840930e-01
-6.615805259156836149e-01
-1.110679339241215535e+00
-1.553084424618990766e+00
-1.974109780441612338e+00
-2.359069405101689831e+00
-2.693277296991819281e+00
-2.962047454504608712e+00
-3.150693876032669039e+00
-3.247978544515309984e+00
-3.262316099765187438e+00
-3.209073757902655366e+00
-3.103626783588700810e+00
-2.961350441484297935e+00
-2.797619996250432450e+00
-2.627810712548087402e+00
-2.467297855038246279e+00
-2.331456688381886355e+00
-2.235710565839474029e+00
-2.193063739281492452e+00
-2.200024268282684936e+00
-2.247027828869826216e+00
-2.324501514561416293e+00
-2.422872418875954725e+00
-2.532567635331941958e+00
-2.644014257447873550e+00
-2.747639378742251282e+00
-2.833870092733572932e+00
-2.893133492940338503e+00
-2.917397724653557400e+00
-2.907916230979469052e+00
-2.869403237428961528e+00
-2.806578848158906236e+00
-2.724163167326175916e+00
-2.626876299087642863e+00
-2.519438347600176265e+00
-2.406569417020647972e+00
-2.292989611505932501e+00
-2.183419035212900372e+00
-2.081933774121814906e+00
-1.988619562192096790e+00
-1.902035795093798276e+00
-1.820738791782052779e+00
-1.743284871211998155e+00
-1.668230352338770262e+00
-1.594131554117504290e+00
-1.519567572990112136e+00
-1.443246176605339937e+00
-1.363920269293403598e+00
-1.280415778654103276e+00
-1.192023652534422995e+00
-1.098217366285000995e+00
-9.984708269087669841e-01
-8.922579414086444505e-01
-7.790526167875588825e-01
-6.583287600484331037e-01
-5.295602781941994852e-01
-3.922210782277800178e-01
-2.457850671521006891e-01
-8.975582999292294750e-02
7.616852074374466652e-02
2.522115277917379439e-01
4.385965187040273272e-01
6.355468210335933898e-01
8.432857623333986918e-01
1.062036670156425000e+00
1.292022872055638372e+00
1.533467695584025181e+00
1.786594468294541826e+00
2.050752886431399968e+00
2.319401770724836886e+00
2.583565848870674753e+00
2.834262153265518780e+00
3.062507720282098056e+00
3.259437069882585192e+00
3.416609871180447122e+00
3.525681932973395938e+00
3.578309064059153943e+00
3.566147073235438114e+00
3.482878447879338424e+00
3.336246363639030488e+00
3.139954301622313260e+00
2.907728368770759797e+00
2.653295145061651539e+00
2.390382150241319614e+00
2.132717186168882506e+00
1.894028054757709079e+00
1.688042557921133113e+00
1.528488497572519256e+00
1.426965332161421518e+00
1.379877487874081821e+00
1.377022697475003277e+00
1.408171655883940554e+00
1.463095058020657202e+00
1.531563598804903892e+00
1.603347973156449058e+00
1.668218875995041151e+00
1.715947002240447494e+00
1.736303046812417428e+00
1.720266447252974951e+00
1.667698502104227654e+00
1.582421336503476272e+00
1.468279257058727971e+00
1.329125805650217540e+00
1.168815851608947964e+00
9.912042642659132374e-01
8.001459129521202307e-01
5.994956669985566089e-01
3.931083957362376813e-01
1.851053835796117042e-01
-1.837689916325352391e-02
-2.102803647023036016e-01
-3.835421686729968971e-01
-5.310994667108018819e-01
-6.458894144511798663e-01
-7.208491675295991552e-01
-7.489158815815174508e-01
-7.230267122424003379e-01
-6.361188151477175090e-01
-4.832389767970274308e-01
-2.758636563426790644e-01
-3.317440902464457997e-02
2.256029222872949491e-01
4.812424947233966410e-01
7.145184654138844182e-01
9.062049914890147884e-01
1.037076230079009953e+00
1.087906338314121424e+00
1.039469473324582616e+00
8.761228221516713655e-01
6.108333577527564895e-01
2.701679466802637819e-01
-1.192383339419040844e-01
-5.307504069898962840e-01
-9.377331953398048148e-01
-1.313551621867764974e+00
-1.631570609449909615e+00
-1.865155080962337619e+00
-1.987669959281186172e+00
-1.976376868731758218e+00
-1.840726494063559038e+00
-1.606038994909554596e+00
-1.297746052864292787e+00
-9.412793495223593654e-01
-5.620705664782936761e-01
-1.855513853266853586e-01
1.628465123379274626e-01
4.576914449209562585e-01
6.735517308278551329e-01
7.881592822021439293e-01
8.061689836440684154e-01
7.458429774411388102e-01
6.255484650934641788e-01
4.636526481011671308e-01
2.785227279643505693e-01
8.852590618313999071e-02
-8.797061574236481052e-02
-2.325976301254972789e-01
-3.269342215398328699e-01
-3.545839919366179371e-01
-3.173840468866325204e-01
-2.266194162262395728e-01
-9.365496655955182770e-02
7.014443550930229976e-02
2.534139233762154331e-01
4.447886304370587962e-01
6.329036900877261784e-01
8.063942357240866388e-01
9.538954007420342718e-01
1.065043962135199695e+00
1.138530134908010805e+00
1.177851800975960872e+00
1.186551148572116743e+00
1.168170365929543930e+00
1.126251641281305726e+00
1.064337162860470976e+00
9.859691189001003053e-01
8.946896976332654461e-01
7.940410872930231401e-01
6.876154166203729545e-01
5.794701747403669945e-01
4.739161257525527082e-01
3.752657451813158351e-01
2.878282052878370911e-01
2.159118525174775760e-01
1.638311137745782908e-01
1.359832949140193925e-01
1.368255964525471047e-01
1.708165499545872545e-01
2.415984084689144495e-01
3.449697043469437951e-01
4.723540295778321241e-01
6.151274805389179701e-01
7.646661536075191057e-01
9.123461451609758965e-01
1.049543551576605838e+00
1.167634469231748851e+00
1.257994994503723873e+00
1.312001223769867719e+00
1.321943117597123019e+00
1.289168564488879953e+00
1.220202621596994774e+00
1.121631082651502354e+00
1.000039741382420022e+00
8.620143915197815421e-01
7.141408267936153464e-01
5.630048409339600823e-01
4.151922276708258641e-01
2.772887807342497291e-01
1.554242025170412267e-01
5.106392451839833480e-02
-3.705829124853683015e-02
-1.102432217766238787e-01
-1.697992743765464885e-01
-2.170966931190842220e-01
-2.535357209608214424e-01
-2.805167988034906745e-01
-2.994403675488264693e-01
-3.117068680985645712e-01
-3.187299864806112937e-01
-3.220632062189164868e-01
-3.233438976035949430e-01
-3.242105712288345654e-01
-3.263017376888212584e-01
-3.312559075777429252e-01
-3.407115914897864695e-01
-3.563073000191384065e-01
-3.796815437599870280e-01
-4.124728333065195152e-01
-4.561071403076745190e-01
-5.096945072402506716e-01
-5.709212092821641660e-01
-6.374527628288867431e-01
-7.069546842758932526e-01
-7.770924900186537698e-01
-8.455316964526533585e-01
-9.099378199733624273e-01
-9.679763769762559367e-01
-1.017312883856805295e+00
-1.055744279842262934e+00
-1.082546404234395521e+00
-1.097928979534419147e+00
-1.102128850716622921e+00
-1.095386866686633098e+00
-1.077943878024675506e+00
-1.050040735310976414e+00
-1.011918289125764980e+00
-9.638173900492628121e-01
-9.059788886616989556e-01
-8.387655303176142496e-01
-7.639570871229633964e-01
-6.842475419910467593e-01
-6.023461146819687473e-01
-5.209620249558282179e-01
-4.428044925727303016e-01
-3.705827372927633090e-01
-3.070059788760328146e-01
-2.547834370826381201e-01
-2.166243316726801371e-01
-1.949543650821904395e-01
-1.887932187535209250e-01
-1.949096899820703388e-01
-2.100325851049841541e-01
-2.308907104594138116e-01
-2.542128723825054504e-01
-2.767278772114046825e-01
-2.951645312832635870e-01
-3.062516409352275537e-01
-3.067180105484538233e-01
-2.935905840913621834e-01
-2.676716146364802595e-01
-2.323311183617524367e-01
-1.909877558397754804e-01
-1.470601876431500699e-01
-1.039670743444681827e-01
-6.512707651632966555e-02
-3.395885473133244958e-02
-1.388106956207474374e-02
-8.312381581151662147e-03
-2.032292049996699268e-02
-4.850636830808988109e-02
-8.835297967204430725e-02
-1.352906865716723139e-01
-1.847470593919645077e-01
-2.321482221385436362e-01
-2.729199372221874920e-01
-3.024879670536829712e-01
-3.162781802567307121e-01
-3.097170608479593579e-01
-2.787110021490745160e-01
-2.255404344350784851e-01
-1.570115328681250533e-01
-8.002685917137722371e-02
-1.488975068004022573e-03
7.169955771884232998e-02
1.326361774659924053e-01
1.744183066498743717e-01
1.901405624434096275e-01
1.728915513189641928e-01
1.165442361667314991e-01
2.576945956713584326e-02
-8.691028761150643156e-02
-2.087954450708449650e-01
-3.271864525125084411e-01
-4.293837496381302521e-01
-5.026877761493437902e-01
-5.343989717477919399e-01
-5.118177761351052624e-01
-4.222446290129188151e-01
-2.541574282759691550e-01
-1.280144841361842423e-02
2.840922728803264019e-01
6.184949668651049670e-01
9.723778647999319347e-01
1.327712197944099337e+00
1.666469197556821102e+00
1.970620094897339358e+00
2.222136121224876693e+00
2.402988507798712092e+00
2.496259400683839225e+00
2.501418585777237080e+00
2.430431997787732001e+00
2.295580211744964405e+00
2.109143802678587587e+00
1.883403300818811354e+00
1.630637031248478142e+00
1.363120153083483777e+00
1.093127580562216705e+00
8.329342279230493862e-01
5.944934857537345074e-01
3.848432797175104225e-01
2.071834223874393921e-01
6.461181590071757297e-02
-3.977363760544957300e-02
-1.028750359938799125e-01
-1.215944771273680530e-01
-9.283405886871477775e-02
-1.349587908073008810e-02
1.195179643737931396e-01
3.086962454776135401e-01
5.468720150431974902e-01
8.191583406738819351e-01
1.110452395214608590e+00
1.405651351510261771e+00
1.689652382405743669e+00
1.947352660745938380e+00
2.163649359375786840e+00
2.323439651140171591e+00
2.411620708883995601e+00
2.413988974537888854e+00
2.331128824432962432e+00
2.175730723877793427e+00
1.960841387656387491e+00
1.699509530183401118e+00
1.404785815287431960e+00
1.089720987725427692e+00
7.673657922543180021e-01
4.507709736310577253e-01
1.529872766125303929e-01
-1.132732609917831146e-01
-3.410796973418924738e-01
-5.283468199565711787e-01
-6.731392213062372676e-01
-7.735214938612696711e-01
-8.275582300920619749e-01
-8.333140224690079867e-01
-7.888534634625020692e-01
-6.922411455429348104e-01
-5.415416611806996849e-01
-3.352655114677391968e-01
-7.982700489730962246e-02
2.115764657998405185e-01
5.255273881277128245e-01
8.486082495902880218e-01
1.167401537691616253e+00
1.468489739935676885e+00
1.738455343826474042e+00
1.963880836867996305e+00
2.131348706564278217e+00
2.228067527770778433e+00
2.252777086307593102e+00
2.214348878346187099e+00
2.121998931287154999e+00
1.984943267913720222e+00
1.812398114733576149e+00
1.613580513152297335e+00
1.397707708299887663e+00
1.173996945306388762e+00
9.516654693018326006e-01
7.397078233015405013e-01
5.428539996882185692e-01
3.619976128653610847e-01
1.978955103002546789e-01
5.130453946015212791e-02
-7.701845218765883405e-02
-1.863166171759027823e-01
-2.758331080372979915e-01
-3.448110773045816035e-01
-3.924936775104712061e-01
-4.182298395878227271e-01
-4.234757723883024738e-01
-4.116285177206667756e-01
-3.861575361379733784e-01
-3.505322881932804169e-01
-3.082222344396488567e-01
-2.626968354301300601e-01
-2.174255517177858255e-01
-1.758778438556734547e-01
-1.415231958583964555e-01
-1.177288324337534414e-01
-1.057377942719185671e-01
-1.047900940238677275e-01
-1.140475868626297934e-01
-1.326721279612349536e-01
-1.598255724927119259e-01
-1.946697756300906912e-01
-2.363665925463971085e-01
-2.840778784146664737e-01
-3.369654884079255619e-01
-3.941625564471159526e-01
-4.541817302111124111e-01
-5.149366649677570296e-01
-5.743165951739498398e-01
-6.302107552865955364e-01
-6.805083797625933739e-01
-7.230987030588547082e-01
-7.558709596322799040e-01
-7.767143839397724348e-01
-7.835182104382361068e-01
-7.742644622763987794e-01
-7.490248308756281004e-01
-7.099362640544357728e-01
-6.592236157367142857e-01
-5.991117398463445820e-01
-5.318254903072184847e-01
-4.595897210432240421e-01
-3.846292594372682783e-01
-3.091688104800919823e-01
-2.354330439057496505e-01
-1.656198859825352698e-01
-1.012989550044506165e-01
-4.340413452515853171e-02
7.158920781659843663e-03
4.948455624232684508e-02
8.266711718316474555e-02
1.058009489305016815e-01
1.179803968106584583e-01
1.182998061499587333e-01
1.058535222747271770e-01
7.979145313826054020e-02
4.062634398824362114e-02
-9.717319518668617040e-03
-6.924970466504341837e-02
-1.359809787334621822e-01
-2.079213090064941372e-01
-2.830808627667112942e-01
-3.594698072966816538e-01
-4.350983098789881764e-01
-5.079765377961981132e-01
-5.761325525568044004e-01
-6.380530108436015535e-01
-6.927109204741315196e-01
-7.391027406936629962e-01
-7.762249307575045387e-01
-8.030739631373534637e-01
-8.186463495436204774e-01
-8.219386089351768954e-01
-8.119472602708979192e-01
-7.876688225096606377e-01
-7.481584528171797421e-01
-6.940428208934851240e-01
-6.276548811812366901e-01
-5.514132379885653412e-01
-4.677364956235862126e-01
-3.790432583944302602e-01
-2.877521306092229447e-01
-1.962817165760969151e-01
-1.070506206031643925e-01
-2.247744699855768608e-02
5.505729066620664719e-02
1.242415422011654419e-01
1.849509704661135012e-01
2.371232627240192625e-01
2.806961062378576233e-01
3.156071882706008025e-01
3.417938967220334190e-01
3.591924220391544131e-01
3.677386553057708785e-01
3.673684876056892978e-01
3.580426022055990254e-01
3.404502316068083734e-01
3.161098109817043200e-01
2.865851373696608473e-01
2.534401631867655991e-01
2.182388426610211984e-01
1.825451300204284089e-01
1.479229794929904085e-01
1.159363453067029509e-01
8.814918168956935307e-02
6.609814588372117661e-02
5.047872689562752507e-02
4.100626495369231322e-02
3.734080329231357492e-02
3.914238514588875423e-02
4.607105374881383109e-02
5.778685233548689487e-02
7.394982414030483453e-02
9.422001239766439329e-02
1.182574603419606907e-01
1.456941234142513641e-01
1.752534033438246652e-01
2.045747708740969784e-01
2.312341906317487428e-01
2.528076272434651717e-01
2.668710453359254831e-01
2.710004095358117815e-01
2.627716844698056997e-01
2.397608347645885096e-01
1.995438250468416497e-01
1.398286908932429573e-01
6.281265573236870237e-02
-2.382338592048885775e-02
-1.120650720702614095e-01
-1.938980407218396373e-01
-2.613079298801626038e-01
-3.062803775501283798e-01
-3.208010217366660810e-01
-2.968555004446856715e-01
-2.264294516791126310e-01
-1.017752406544743804e-01
7.531711307632921182e-02
2.911284254153946316e-01
5.311869648011006140e-01
7.810209996716955816e-01
1.026158798465533373e+00
1.252128629620963718e+00
1.444458761576240979e+00
1.588677462769718884e+00
1.670313001639723849e+00
1.675230490069324230e+00
1.601981113001858859e+00
1.465363087630883410e+00
1.281237359742504855e+00
1.065464875122802635e+00
8.339065795579525542e-01
6.024234188340376051e-01
3.868763387371412232e-01
2.031262858162367901e-01
6.703422106080260401e-02
-5.831338395018990754e-03
-1.151698884114299958e-02
3.869843622873457567e-02
1.325035130267248895e-01
2.575868177649580093e-01
4.016369266555819273e-01
5.523424159106805620e-01
6.973918617424202937e-01
8.244738403628846246e-01
9.212769279842215608e-01
9.756772764776340257e-01
9.834172823871097924e-01
9.508030767000738015e-01
8.848826092328755388e-01
7.927038298018966866e-01
6.813146882234750734e-01
5.577631343140051490e-01
4.290971178898341787e-01
3.023645887673058197e-01
1.846134967628197676e-01
8.280207424610967759e-02
-8.971547875128058037e-05
-6.655297316598002277e-02
-1.194766101284729792e-01
-1.617495376790913375e-01
-1.962606671307202399e-01
-2.258989154356186024e-01
-2.535532596764799584e-01
-2.821127132991617659e-01
-3.144662902551660921e-01
-3.534478918870243014e-01
-3.993036562061031969e-01
-4.486351281757546272e-01
-4.977695731512145061e-01
-5.430342564877191913e-01
-5.807564435404851677e-01
-6.072633996647491816e-01
-6.188825181243972073e-01
-6.119417038179317814e-01
-5.827689895525125507e-01
-5.277667416205915618e-01
-4.470388446779937075e-01
-3.460283299821154679e-01
-2.305939283536976581e-01
-1.065943706134394875e-01
2.011161241796641588e-02
1.436652899197707334e-01
2.582079310712953046e-01
3.578808050517960915e-01
4.368251810405777147e-01
4.892397297235963061e-01
5.123594185060389439e-01
5.079048668965582269e-01
4.779578771202649401e-01
4.246002889275128367e-01
3.499141875671560320e-01
2.559817569915373570e-01
1.448851814214445755e-01
1.870664507765801982e-02
-1.204716678189870910e-01
-2.705458458221475793e-01
-4.281890643642208283e-01
-5.882239959228990900e-01
-7.453192770358330055e-01
-8.941435442405832879e-01
-1.029365434074778651e+00
-1.145653583076040372e+00
-1.237676627781940653e+00
-1.300103204730104434e+00
-1.327601950458138003e+00
-1.314918066848264955e+00
-1.261390676460188542e+00
-1.173479478903725504e+00
-1.058256696545667230e+00
-9.227945517527901265e-01
-7.741652668919293268e-01
-6.194410643298642327e-01
-4.656941664333694719e-01
-3.199967955692865629e-01
-1.894211741043727582e-01
-8.098240324163859249e-02
1.964963453913736585e-03
6.187835529212296765e-02
1.017307552070970122e-01
1.244948985135091862e-01
1.331435205253808651e-01
1.306493565567312665e-01
1.199851419215817033e-01
1.041236119339566113e-01
8.603750190787645691e-02
6.868116392455383967e-02
5.374811283639101267e-02
4.088095972674501977e-02
2.953409881590042529e-02
1.916192432414805594e-02
9.218830471771089982e-03
-8.407885209408469656e-04
-1.156253843370248779e-02
-2.349202504622835072e-02
-3.717485413822916446e-02
-5.314974816355379217e-02
-7.144905591544131740e-02
-9.126125327305098511e-02
-1.116948633014021725e-01
-1.318584090655146035e-01
-1.508604136304000642e-01
-1.678094000610801106e-01
-1.818138914225678471e-01
-1.919824107798822621e-01
-1.974234790789472227e-01
-1.972553600917079653e-01
-1.914649150986567627e-01
-1.815274454781363178e-01
-1.690638546824843047e-01
-1.556950461640322358e-01
-1.430419233751200059e-01
-1.327253897680800432e-01
-1.263663487952466080e-01
-1.255857039089571248e-01
-1.320043585615451875e-01
-1.472344665283757958e-01
-1.721423616082868591e-01
-2.062894976436110139e-01
-2.491056777202913519e-01
-3.000207049242845647e-01
-3.584643823415509800e-01
-4.238665130580275830e-01
-4.956569001596740076e-01
-5.732653467324541063e-01
-6.561216558622985362e-01
-7.436483104443620817e-01
-8.345935121709260329e-01
-9.264965609005564318e-01
-1.016770948774731398e+00
-1.102830167934891525e+00
-1.182087710522515378e+00
-1.251957068679077745e+00
-1.309851533359680076e+00
-1.353165285785869809e+00
-1.379256424221921629e+00
-1.385496562170796198e+00
-1.371031809698250781e+00
-1.338268687432531578e+00
-1.289963609471777239e+00
-1.228872989914118641e+00
-1.157753242857712861e+00
-1.079360817605522715e+00
-9.964524647127314116e-01
-9.117850876868185406e-01
-8.281155912362485605e-01
-7.481938000527296184e-01
-6.740012880599588474e-01
-6.060729169128326044e-01
-5.447834886204164784e-01
-4.905078051917327042e-01
-4.436206686358445950e-01
-4.044968809617842664e-01
-3.735112441785963799e-01
-3.510385602953274287e-01
-3.374536313210214633e-01
-3.331213251393279617e-01
-3.372309001122578143e-01
-3.467024797088903432e-01
-3.581974317607352631e-01
-3.683771240993182206e-01
-3.739028698784143678e-01
-3.714341798035715181e-01
-3.576283946110060952e-01
-3.291427260606097360e-01
-2.826343859122779079e-01
-2.147815599531427422e-01
-1.249789876793420129e-01
-1.799631235998844225e-02
1.007652426995776507e-01
2.259044541940002926e-01
3.520200988179437718e-01
4.737109532660744304e-01
5.855757942330355181e-01
6.822133984134937101e-01
7.582225425021036358e-01
8.082255087151919426e-01
8.301893938727842315e-01
8.288657939781753914e-01
8.098276141207716439e-01
7.786477593899563399e-01
7.408991348751463590e-01
7.021546456657294932e-01
6.679871968511204017e-01
6.439696935207210871e-01
6.356750407639006895e-01
6.486614772469434520e-01
6.861847718318876410e-01
7.467124943510796697e-01
8.281071066882195186e-01
9.280983239439426491e-01
1.044307195695507229e+00
1.174351575050391006e+00
1.315849315116121909e+00
1.466418269000182351e+00
1.623676289810063400e+00
1.785243957463764408e+00
1.949216258316539552e+00
2.114699761497117692e+00
2.280930927111617823e+00
2.447146215266230662e+00
2.612582086067094078e+00
2.776474999620381467e+00
2.938061416032241802e+00
3.096577795408826717e+00
3.251260597856309609e+00
3.401346978399127252e+00
3.546208737036464775e+00
3.685512085124651449e+00
3.818962156298427946e+00
3.946264084192490529e+00
4.067123002441539903e+00
4.181244044680313188e+00
4.288332344543499985e+00
4.388093035665832531e+00
4.480231251682008420e+00
4.564455697055524119e+00
4.641243515278430820e+00
4.712749776761778087e+00
4.781333237817818826e+00
4.849352310311064507e+00
4.919165406105971527e+00
4.993130937067046915e+00
5.073607315058782596e+00
5.162952951945691815e+00
5.263526259592225642e+00
5.377678742568111403e+00
5.506074108969240655e+00
5.645494227635935225e+00
5.792177244495439581e+00
5.942361305474997302e+00
6.092284556501873283e+00
6.238185143503258701e+00
6.376301212406428220e+00
6.502870909138607658e+00
6.614130194908818261e+00
6.706311181384771558e+00
6.776998195962676164e+00
6.826970819970691551e+00
6.857469192042165318e+00
6.869733450810448616e+00
6.865003734908897037e+00
6.844520182970864397e+00
6.809522933629704511e+00
6.761252125518768530e+00
6.701008463151992167e+00
6.630448781381297785e+00
6.551048169263916421e+00
6.463526373575118278e+00
6.368491093463054753e+00
6.266550028075933199e+00
6.158310876561910341e+00
6.044381338069138465e+00
5.925369111745834694e+00
5.801881896740153977e+00
5.674527392200261922e+00
5.543912470687422989e+00
5.410343054428240706e+00
5.273377815799086932e+00
5.132461423241814202e+00
4.987038545198369199e+00
4.836553850110597352e+00
4.680452006420391164e+00
4.518177682569588072e+00
4.349175547000151631e+00
4.172890268153921056e+00
3.988765815851937901e+00
3.795950742709934822e+00
3.592840975141255555e+00
3.377714331831656480e+00
3.148848631466852677e+00
2.904521692732674687e+00
2.643011334593674988e+00
2.362635229454959074e+00
2.061861409863016359e+00
1.739193362157456679e+00
1.393139215803210540e+00
1.024510524566665470e+00
6.401407535298651030e-01
2.478352670770449517e-01
-1.446005704074762033e-01
-5.293613945393513820e-01
-8.986418409342668001e-01
-1.244636545207940426e+00
-1.559540142976117316e+00
-1.835547269854375330e+00
-2.064858785949938991e+00
-2.243339934400353730e+00
-2.376687517732641641e+00
-2.472230051567618325e+00
-2.537296051526094942e+00
-2.579214033228884428e+00
-2.605312512296677152e+00
-2.622920004350338896e+00
-2.639365025010637744e+00
-2.661976089898370201e+00
-2.698077162794811912e+00
-2.751770505399637301e+00
-2.818286572199524720e+00
-2.891341845012655565e+00
-2.964653364564239002e+00
-3.032126274968756974e+00
-3.088126214938618386e+00
-3.127087990246545601e+00
-3.143446406665321824e+00
-3.131636269967698727e+00
-3.086096089830195233e+00
-3.004463921627947176e+00
-2.893421888860244540e+00
-2.761238862677535710e+00
-2.616183714230204238e+00
-2.466525314668637225e+00
-2.320532535143284836e+00
-2.186474246804521737e+00
-2.072619320802786103e+00
-1.987236628288469698e+00
-1.938591152977833687e+00
-1.930777086946809051e+00
-1.955785824981185250e+00
-2.003425906857958516e+00
-2.063505872354119752e+00
-2.125834261246683177e+00
-2.180219613312605276e+00
-2.216470468328882948e+00
-2.224395366072556612e+00
-2.193802846320578315e+00
-2.114505311599620185e+00
-1.981569560387308027e+00
-1.805717360207069966e+00
-1.600642921198487389e+00
-1.380154977189106402e+00
-1.158072792793352068e+00
-9.482156326255892775e-01
-7.644027613002402077e-01
-6.204534434316630875e-01
-5.301869436343105146e-01
-5.074144894327027311e-01
-5.594050791562044100e-01
-6.734640262203546168e-01
-8.330933490056917634e-01
-1.021795065892811660e+00
-1.223071195262145361e+00
-1.420423755494339524e+00
-1.597354764969949992e+00
-1.737366242069423139e+00
-1.823960205173415172e+00
-1.840641235982579893e+00
-1.777074952801195984e+00
-1.642280860247119278e+00
-1.449068764172139145e+00
-1.210248470427973899e+00
-9.386297848663176513e-01
-6.470225133389961858e-01
-3.482364616977116079e-01
-5.508143579416246993e-02
2.196327585198516452e-01
4.631078202460470195e-01
6.660598008694497141e-01
8.299241243078533392e-01
9.582455656355945983e-01
1.054568899927008196e+00
1.122438902256455595e+00
1.165400347698304140e+00
1.186998011326872327e+00
1.190776668216532608e+00
1.180281093441622575e+00
1.159055906842835881e+00
1.129902751883820944e+00
1.093161746296000825e+00
1.048663921045326797e+00
9.962403070977745578e-01
9.357219354192984895e-01
8.669398369758657408e-01
7.897250427334281397e-01
7.039085836579674904e-01
6.093214907154285154e-01
5.057948481894586346e-01
3.935548710055494226e-01
2.741723659344647013e-01
1.495038891738211806e-01
2.140599692121591957e-02
-1.082647546257102800e-01
-2.376518092693582496e-01
-3.648986108121368144e-01
-4.881480536901806611e-01
-6.055351299965814338e-01
-7.151889451622288618e-01
-8.157131608812063783e-01
-9.073707168897772180e-01
-9.907868808445152720e-01
-1.066586920401981775e+00
-1.135396103218706543e+00
-1.197839696951254806e+00
-1.254542969256186691e+00
-1.306131187790056991e+00
-1.353229620209407180e+00
-1.396463541467048985e+00
-1.436631583261167133e+00
-1.475154846317916935e+00
-1.513594091243720241e+00
-1.553510078644986692e+00
-1.596463569128129922e+00
-1.644015323299522269e+00
-1.697726101765593798e+00
-1.759156665132748598e+00
-1.829867774007377434e+00
-1.911420164239338693e+00
-2.004016229375762848e+00
-2.102847810844523657e+00
-2.201951708546983077e+00
-2.295364722384526157e+00
-2.377123652258511743e+00
-2.441293858141061257e+00
-2.482183026308601548e+00
-2.494221013877316651e+00
-2.471838612530130597e+00
-2.409466629969328366e+00
-2.304425095300068893e+00
-2.164983036654552162e+00
-2.002002673838663149e+00
-1.826346226658194016e+00
-1.648875914919031960e+00
-1.480453958426989347e+00
-1.331942576987887428e+00
-1.214203990407603406e+00
-1.138100418491951871e+00
-1.114494078180629621e+00
-1.150220479949468633e+00
-1.236437756248712549e+00
-1.360489209471250849e+00
-1.509718142010039177e+00
-1.671467856258027185e+00
-1.833081654608095468e+00
-1.981902839453189014e+00
-2.105274713186275903e+00
-2.190540578200231181e+00
-2.225043736888010937e+00
-2.200109594124843415e+00
-2.122991964715214230e+00
-2.004926765945886480e+00
-1.857136141796348117e+00
-1.690768932007200132e+00
-1.516949685650148982e+00
-1.346802936027189146e+00
-1.191453216440281571e+00
-1.062025060191414072e+00
-9.696430005825493748e-01
-9.223323765506065142e-01
-9.153821165225622947e-01
-9.408098246998765068e-01
-9.906331029555788259e-01
-1.056869553162646636e+00
-1.131536777194122712e+00
-1.206652376922973557e+00
-1.274233954222212528e+00
-1.326299110964883399e+00
-1.354865449023944901e+00
-1.354236695373612243e+00
-1.328369076555820483e+00
-1.283765920292594398e+00
-1.226930568428395762e+00
-1.164366362807712107e+00
-1.102576645275011646e+00
-1.048064757674778802e+00
-1.007334041851478457e+00
-9.868878396495939231e-01
-9.932294929136025186e-01
-1.030865422820754773e+00
-1.095610251703001747e+00
-1.180830490632590601e+00
-1.279871344710008962e+00
-1.386078019035783093e+00
-1.492795718710350439e+00
-1.593369648834234376e+00
-1.681145014507927637e+00
-1.749467020831903641e+00
-1.791680872906660671e+00
-1.802543567608253960e+00
-1.783104507713694220e+00
-1.736165522158082286e+00
-1.664528513632825835e+00
-1.570995384829359853e+00
-1.458368038439080028e+00
-1.329448377153439553e+00
-1.187038303663835670e+00
-1.033939720661684269e+00
-8.729545308384292213e-01
-7.068455738323360382e-01
-5.381968003176358373e-01
-3.695409829559392345e-01
-2.034108903090534048e-01
-4.233929093888665063e-02
1.111410465927472613e-01
2.544973537239966777e-01
3.851968618930005084e-01
5.007066685392779215e-01
5.984656639234444686e-01
6.765225711705783462e-01
7.360828637573166855e-01
7.792821726852996456e-01
8.082562544687235118e-01
8.251408656217507076e-01
8.320717626585766302e-01
8.311847020933567087e-01
8.246154404402915583e-01
8.144997342135419371e-01
8.029733399272925842e-01
7.919038622305183406e-01
7.818623434548971352e-01
7.730284771192191817e-01
7.655818749759155661e-01
7.597021487773633064e-01
7.555689102759939324e-01
7.533617712241907904e-01
7.532603433743666477e-01
7.554442384789231690e-01
7.600930682902725666e-01
7.672578843944383165e-01
7.763509610841471398e-01
7.865865533570818302e-01
7.971788559737769120e-01
8.073420636947303830e-01
8.162903712804643330e-01
8.232378393855471765e-01
8.273912801700097353e-01
8.279467068546707553e-01
8.240992528976798237e-01
8.153510707335347441e-01
8.027720202430033147e-01
7.879310468054713246e-01
7.723973067079525912e-01
7.577399562374580455e-01
7.455281516809978415e-01
7.373310493255640363e-01
7.347178054581843254e-01
7.392575763658494337e-01
7.525195183355830597e-01
7.758164180832816115e-01
8.091209835527797267e-01
8.519874006210524930e-01
9.039749312722619168e-01
9.646428374905640091e-01
1.033550381260112117e+00
1.110256824565070577e+00
1.194321429389583189e+00
1.285303457717809517e+00
1.382762171533925111e+00
1.486048869738240130e+00
1.593393112706457559e+00
1.702647938659909599e+00
1.811666078708227046e+00
1.918300662226227304e+00
2.020423255048227063e+00
2.115924340976919726e+00
2.202695242828121014e+00
2.278627283417617111e+00
2.341611785561222181e+00
2.389977727014618747e+00
2.424480654865327267e+00
2.446712345614757922e+00
2.458265355181512568e+00
2.460732239484202388e+00
2.455705554441431904e+00
2.444777855971813629e+00
2.429541699993952530e+00
2.411589642426452684e+00
2.392514239187927938e+00
2.373696162718443414e+00
2.355308402173996285e+00
2.337096701160915391e+00
2.318806308691442997e+00
2.300182473777821368e+00
2.280970445432292770e+00
2.260915472667096360e+00
2.239762804494476178e+00
2.217257689926671382e+00
2.193145377975928234e+00
2.167059441739395353e+00
2.137979038808796695e+00
2.104645256159901390e+00
2.065793443373829419e+00
2.020155242906997994e+00
1.966462224634309086e+00
1.903445958430636908e+00
1.829838014170888538e+00
1.744369961729943519e+00
1.645773370982681394e+00
1.533474945795473943e+00
1.411089780228516055e+00
1.283794049889951605e+00
1.156766582113721187e+00
1.035186204233690566e+00
9.242317435837963391e-01
8.290820274979225912e-01
7.549158833099663957e-01
7.069121383538436998e-01
6.902496199634508001e-01
7.088388889989042374e-01
7.587322969242389359e-01
8.329763737059426854e-01
9.246115903287259741e-01
1.026678417777324492e+00
1.132217327036492582e+00
1.234268789090917862e+00
1.325873274925355449e+00
1.400071255524539149e+00
1.449903201873181002e+00
1.469484362748563644e+00
1.459778293100212343e+00
1.424436373925191290e+00
1.367116337815310612e+00
1.291475917362368664e+00
1.201172845158154256e+00
1.099864853794507491e+00
9.912096758632202853e-01
8.788650439560914407e-01
7.664886906649310827e-01
6.575468816420891871e-01
5.542508939083038433e-01
4.583065654416575985e-01
3.714183459869490056e-01
2.952906852889649603e-01
2.316280330924924691e-01
1.821348391423451563e-01
1.485155531833068643e-01
1.324746249601653769e-01
1.357165042177176650e-01
1.594249912787670809e-01
2.012731595719575717e-01
2.574834601423749980e-01
3.242737579437042772e-01
3.978619179296063457e-01
4.744658050537521876e-01
5.503032842698274418e-01
6.215922205314525772e-01
6.845510469280098320e-01
7.354009288448798420e-01
7.708698172539555360e-01
7.911959482634258745e-01
7.981032804173029405e-01
7.933122916586298201e-01
7.785412469333001795e-01
7.555084111872215624e-01
7.259320493662873020e-01
6.915304264163970593e-01
6.540218072834582674e-01
6.151244569133708096e-01
5.764839047650237580e-01
5.392263947165146787e-01
5.042523889186300012e-01
4.724614255121096784e-01
4.447530426376652968e-01
4.220267784360232644e-01
4.051821710479018845e-01
3.951187586140293417e-01
3.927360792751224405e-01
3.989336711719083661e-01
4.143844743461249092e-01
4.380963822191787371e-01
4.683347707321948161e-01
5.033615932409702953e-01
5.414388031012733471e-01
5.808283535949799736e-01
6.197920511111398856e-01
6.565912477305537731e-01
6.894872079748768368e-01
7.167411963657214224e-01
7.367621588842757641e-01
7.490761163789710908e-01
7.537199684859762217e-01
7.507332515459962385e-01
7.401555018997397761e-01
7.220262558879140258e-01
6.963850498512301757e-01
6.632714201303930857e-01
6.227249030661132778e-01
5.747850349990842878e-01
5.197349793679059138e-01
4.597552521458335706e-01
3.979161790972999824e-01
3.372932004676083007e-01
2.809617565020552377e-01
2.319972874459738932e-01
1.934752335446582039e-01
1.684710350434118487e-01
1.600601321875446403e-01
1.713179652223668636e-01
2.047233524655260872e-01
2.579702232474875845e-01
3.264516287729405386e-01
4.055459633860807322e-01
4.906315392321166091e-01
5.770865016111798029e-01
6.602889756089160844e-01
7.356170863110443880e-01
7.984489588032624985e-01
8.441627181712640926e-01
8.686676285845463807e-01
8.722604774254468785e-01
8.574011375628196596e-01
8.265646828433763638e-01
7.822261871138332934e-01
7.268607242208862118e-01
6.629433680112817306e-01
5.929491923317184998e-01
5.193532710289131549e-01
4.446306779495771133e-01
3.711564649530717519e-01
3.004544718172933448e-01
2.336183234857380220e-01
1.717383232897417289e-01
1.159047745606637259e-01
6.720798062985827714e-02
2.673824482867566757e-02
-4.414129511508027050e-03
-2.515883905934457321e-02
-3.440558048347912984e-02
-3.123327833248597599e-02
-1.620488451520665785e-02
9.347866878777135943e-03
4.408684586641763853e-02
8.667392972401831430e-02
1.357709957278763757e-01
1.900399211542939670e-01
2.481425832795873254e-01
3.087408593800237133e-01
3.704966267319181328e-01
4.321328151468851742e-01
4.929241827965318290e-01
5.524385264687313724e-01
6.102463435256607616e-01
6.659181313295533533e-01
7.190243872426231864e-01
7.691356086270850767e-01
8.158222928451518419e-01
8.586549372590518425e-01
8.972040392309715839e-01
9.310672131370379967e-01
9.600947576877126854e-01
9.842744964462928348e-01
1.003595765025373510e+00
1.018048436486578057e+00
1.027622518253805906e+00
1.032308017750953599e+00
1.032094942401914572e+00
1.026973299630584036e+00
1.016933095385490260e+00
1.001934545035441326e+00
9.816518603965058709e-01
9.555997452747825305e-01
9.232911718227673203e-01
8.842391121929485953e-01
8.379565385378451303e-01
7.839564230099469455e-01
7.217517487404585541e-01
6.508556832685680194e-01
5.707815471491726189e-01
4.814181752092520639e-01
3.863763330620726966e-01
2.913941010350739602e-01
2.022345163047337135e-01
1.246606160475135783e-01
6.443543743994063766e-02
2.732201765846997005e-02
1.908339387958317770e-02
4.548260327975987144e-02
1.122826830354818201e-01
2.242257597881475162e-01
3.756135003295913433e-01
5.546330283127357541e-01
7.493941556061014531e-01
9.480066940782035934e-01
1.138580455597618224e+00
1.309225252032749198e+00
1.448050896173630919e+00
1.543167211134675920e+00
1.582684026511713249e+00
1.555990881813066107e+00
1.465984188818862277e+00
1.323665281557124374e+00
1.140145667284232278e+00
9.265368532565633197e-01
6.939503467304980466e-01
4.534976549623470077e-01
2.162902852086271421e-01
-6.560255274350190215e-03
-2.039424592302047645e-01
-3.655241717100268239e-01
-4.894654448854966478e-01
-5.791470980134678648e-01
-6.380260700708465516e-01
-6.695593000344997048e-01
-6.772037268812933775e-01
-6.644162895880882935e-01
-6.346539271317598319e-01
-5.913735784891733793e-01
-5.380321826371948779e-01
-4.779241603822576012e-01
-4.125151168590373008e-01
-3.421188636252689985e-01
-2.670312390292424176e-01
-1.875480814191887446e-01
-1.039652302267115164e-01
-1.657853228868414602e-02
7.431616246053120156e-02
1.684230040760400504e-01
2.654461426130350077e-01
3.649357304674019087e-01
4.646516972459699968e-01
5.611989901110344681e-01
6.511633065174005086e-01
7.311303439199555720e-01
7.976857997735633532e-01
8.474153715330816627e-01
8.769047566533741955e-01
8.827396525892973189e-01
8.615057567957082885e-01
8.102095890554605884e-01
7.309131968461377582e-01
6.290195956439419422e-01
5.099911591607545480e-01
3.792902611085552378e-01
2.423792751992293049e-01
1.047205751446901589e-01
-2.822346534314630964e-02
-1.509904725523993074e-01
-2.581180727710833955e-01
-3.444980204318466854e-01
-4.094201089207690214e-01
-4.551511238064809839e-01
-4.840141266327890879e-01
-4.983321599261526513e-01
-5.004282610446953994e-01
-4.926254673464520173e-01
-4.772468161894480310e-01
-4.566153449317139623e-01
-4.330540909312656228e-01
-4.087967381671360201e-01
-3.849293370097587874e-01
-3.617423075175585923e-01
-3.395100919884029844e-01
-3.185063631305459775e-01
-2.990017152938173606e-01
-2.812659732384171773e-01
-2.655689617245483580e-01
-2.521805055124193840e-01
-2.413704293622327413e-01
-2.333530488911796374e-01
-2.276050811829700982e-01
-2.230795276655489212e-01
-2.187182359894683792e-01
-2.134630538052849635e-01
-2.062558287635459786e-01
-1.960384085148166866e-01
-1.817526407096452246e-01
-1.623403729985889998e-01
-1.367434530321993413e-01
-1.040533338956797504e-01
-6.541900647994575158e-02
-2.348564424993086416e-02
1.906782744504056590e-02
5.956248325563973101e-02
9.531939783253898235e-02
1.236596458264216797e-01
1.419043018879377338e-01
1.473744406677735264e-01
1.373911368165991465e-01
1.094965238970028870e-01
6.438068420332139496e-02
5.077808079430882506e-03
-6.532201736806599046e-02
-1.437287050325514459e-01
-2.270521678074143845e-01
-3.122023185860367533e-01
-3.960890702618286019e-01
-4.756223357281276209e-01
-5.477120278783450535e-01
-6.094009357552698791e-01
-6.596919685364067698e-01
-6.990826955909391627e-01
-7.281083203118676739e-01
-7.473040460922159012e-01
-7.572050763250024463e-01
-7.583466144032399159e-01
-7.512638637199425817e-01
-7.364920264507186509e-01
-7.145661800249892837e-01
-6.860754810368783208e-01
-6.524393567698174579e-01
-6.157255493512374667e-01
-5.780190151090716100e-01
-5.414047103712862352e-01
-5.079675914658153824e-01
-4.797926147205996417e-01
-4.589647364635858207e-01
-4.475689130227107904e-01
-4.476901007259314058e-01
-4.612778126288704095e-01
-4.881345542433625506e-01
-5.263462468445472275e-01
-5.739508062224513152e-01
-6.289861481670595555e-01
-6.894901884683964921e-01
-7.535008429164711252e-01
-8.190560273012978953e-01
-8.841936574128866910e-01
-9.469516490412660525e-01
-1.005388740189845809e+00
-1.057906077526196587e+00
-1.103185119331518971e+00
-1.139915570593655669e+00
-1.166787136300452277e+00
-1.182489521439737290e+00
-1.185712447983513940e+00
-1.175146243062006102e+00
-1.149481989457979969e+00
-1.107410817503367895e+00
-1.047745734898056780e+00
-9.713799687342018485e-01
-8.809503912942893145e-01
-7.791477793742490610e-01
-6.686629097700103053e-01
-5.521865592774700682e-01
-4.324095046926239028e-01
-3.120225228113707727e-01
-1.937163904296384520e-01
-8.018188434335789261e-02
2.593131429043659189e-02
1.227019516177697556e-01
2.088339134810113240e-01
2.830513723057664355e-01
3.440785005176416611e-01
3.906394705422522318e-01
4.214584548051781288e-01
4.352596257320402451e-01
4.307671557484435421e-01
4.067052172799941467e-01
3.619382072951406459e-01
2.979131709432013553e-01
2.183464364807792546e-01
1.270315547859447725e-01
2.776223467258480057e-02
-7.566636855911558490e-02
-1.794619831641930674e-01
-2.798335681174353162e-01
-3.729900823937188914e-01
-4.551404849678911124e-01
-5.226207816987586963e-01
-5.741998151069683809e-01
-6.108350008596684644e-01
-6.335617772916695145e-01
-6.434155827377618930e-01
-6.414318555327428450e-01
-6.286460340114018441e-01
-6.060935565085271426e-01
-5.748098613589178729e-01
-5.358303868973682826e-01
-4.902194662317949092e-01
-4.396170674830698344e-01
-3.861934128995453408e-01
-3.321385943701985477e-01
-2.796427074085431896e-01
-2.308958475281064626e-01
-1.880881102424142026e-01
-1.534095910649936334e-01
-1.290503855093860508e-01
-1.172005890891106017e-01
-1.199424527004667868e-01
-1.371216746278350329e-01
-1.664718023102047806e-01
-2.056118453625545295e-01
-2.521423109539852048e-01
-3.036634866020229695e-01
-3.577756598241900177e-01
-4.120791181379996893e-01
-4.641741490609851417e-01
-5.116610401106232997e-01
-5.522021818692022244e-01
-5.848016229061800964e-01
-6.097585943399140840e-01
-6.274251316441528115e-01
-6.381532702926262512e-01
-6.422950457590844708e-01
-6.402024935172735409e-01
-6.322276490409309835e-01
-6.187225478038079762e-01
-6.000392252796427073e-01
-5.765081473048155880e-01
-5.479740159230532814e-01
-5.138014441642555497e-01
-4.733346104258430165e-01
-4.259176931052266468e-01
-3.708948705998315054e-01
-3.076103213070768283e-01
-2.354082236243865422e-01
-1.536327559491745265e-01
-6.162809667885182918e-02
4.122028807701494380e-02
1.545493392818953482e-01
2.770051488067100665e-01
4.071897678266857001e-01
5.437052475170141008e-01
6.851536390529513465e-01
8.301369936096660851e-01
9.772573623623894701e-01
1.125116796486334225e+00
1.272317347156720402e+00
1.417459839837075686e+00
1.559115035795866522e+00
1.695822553303837799e+00
1.826120569075357913e+00
1.948547259824755962e+00
2.061640802266403671e+00
2.163939373114647680e+00
2.253981149083844393e+00
2.330304306888329791e+00
2.391447023242472714e+00
2.436039450536082285e+00
2.465068903804796374e+00
2.482022525365144006e+00
2.490507997025851239e+00
2.494133000595661454e+00
2.496505217883281169e+00
2.501232330697432005e+00
2.511922020839649328e+00
2.532139148683527630e+00
2.565280127708539748e+00
2.614602998470146655e+00
2.680767281262306678e+00
2.761611128188144360e+00
2.854831067974716419e+00
2.958123629349015626e+00
3.069185341038080939e+00
3.185712731768862493e+00
3.305402330268397026e+00
3.425950665263722605e+00
3.545054265481799138e+00
3.660474952587350561e+00
3.771806046378678445e+00
3.880676775672020629e+00
3.988822687928311073e+00
4.097979330608519710e+00
4.209882251173639567e+00
4.326267683822230481e+00
4.448874609703542760e+00
4.579442696704433935e+00
4.719711612711811277e+00
4.871326983322801674e+00
5.033170884087449615e+00
5.200980222163449795e+00
5.370321138204800171e+00
5.536759772865535112e+00
5.695862207738019656e+00
5.843169571204517965e+00
5.974159428175983777e+00
6.084299370271522456e+00
6.169056989110257128e+00
6.224077505272714639e+00
6.250479851376987028e+00
6.255761056523537533e+00
6.247777982494263860e+00
6.234387491070955356e+00
6.223446444035571012e+00
6.222811703169961461e+00
6.240340130255966677e+00
6.283888587075469268e+00
6.361313935410342069e+00
6.480198145811307597e+00
6.639231303113585447e+00
6.826495214045134041e+00
7.029450160018521743e+00
7.235556422446368430e+00
7.432274282741130556e+00
7.607064022315427998e+00
7.747385922581830897e+00
7.840700264952896958e+00
7.874467330841198986e+00
7.836486227915013814e+00
7.726073017051360736e+00
7.556612047313548075e+00
7.342345662535501916e+00
7.097707416056859842e+00
6.837454244800917458e+00
6.576374318869935287e+00
6.329255808366013980e+00
6.110886883391293267e+00
5.936055714047955512e+00
5.819210993225881090e+00
5.762662358668919182e+00
5.753536596958737093e+00
5.778002689451538387e+00
5.822229617503555943e+00
5.872386362470993326e+00
5.914641905710184666e+00
5.935165228577226060e+00
5.920125312428367259e+00
5.855691138619900649e+00
5.728316539459839873e+00
5.535183298302984944e+00
5.287212467213031175e+00
4.996223792456707002e+00
4.674037020300630729e+00
4.332471897011412665e+00
3.983348168855738614e+00
3.638485582100316140e+00
3.309703883011750669e+00
3.008822817856653398e+00
2.747462701124976370e+00
2.529326674596277247e+00
2.347831460147767224e+00
2.195804872220485482e+00
2.066081035268702681e+00
1.951494073746941282e+00
1.844878112109724855e+00
1.739067274811346930e+00
1.626895686306263578e+00
1.501197471049031673e+00
1.354910681101825443e+00
1.185331716492669551e+00
9.956098883190280802e-01
7.893055175968777259e-01
5.699789253425289193e-01
3.411904325719697928e-01
1.065003603014310629e-01
-1.305309704528616610e-01
-3.663432386749283509e-01
-5.973761233485178623e-01
-8.200944768438875876e-01
-1.032079394898045344e+00
-1.232447072775316288e+00
-1.420425325489706569e+00
-1.595241968055390203e+00
-1.756124815486322266e+00
-1.902301682796678550e+00
-2.033000385000460319e+00
-2.147448737111691486e+00
-2.244899912849626755e+00
-2.325001408697545013e+00
-2.388121079259120538e+00
-2.435227102450215675e+00
-2.467332240810782729e+00
-2.485449256880785995e+00
-2.490590913200264378e+00
-2.483769972309182172e+00
-2.465998671533149000e+00
-2.438287147340358452e+00
-2.401645010984589934e+00
-2.357087776284736869e+00
-2.305924881834769735e+00
-2.249889729400055050e+00
-2.190748730010958045e+00
-2.130268294697870601e+00
-2.070214834491188594e+00
-2.012354760421279032e+00
-1.958454483518528466e+00
-1.910280414813350758e+00
-1.869598965336076724e+00
-1.838137963465479974e+00
-1.815584378630075824e+00
-1.798610131305804050e+00
-1.783644371565255238e+00
-1.767116249480884305e+00
-1.745454908642284142e+00
-1.715089300658667382e+00
-1.672461622277182869e+00
-1.614133731950480488e+00
-1.536730175902780271e+00
-1.436931041153262090e+00
-1.314511515266321373e+00
-1.173930268716140812e+00
-1.020035825281921049e+00
-8.576767087430570147e-01
-6.917014428787455760e-01
-5.269585514683269301e-01
-3.682965582911799096e-01
-2.205639871264787333e-01
-8.860936175357880806e-02
2.279784736217299601e-02
1.136313685956849562e-01
1.912168885239336202e-01
2.635125202358809537e-01
3.384763768206466295e-01
4.240665713671943338e-01
5.282412169645082090e-01
6.589584267017081221e-01
8.241763136677100476e-01
1.031852990951620086e+00
1.289791540355165189e+00
1.595860032304455611e+00
1.932151744878596977e+00
2.279358125216876196e+00
2.618170620458829312e+00
2.929356068361833820e+00
3.194099983304993007e+00
3.393732383373399664e+00
3.509583423129617685e+00
3.522983257136293567e+00
3.415495030500773410e+00
3.184661838966563074e+00
2.854020094654221573e+00
2.449491685074721037e+00
1.996998497739373990e+00
1.522462420159156560e+00
1.051805339845157672e+00
6.109491443084575923e-01
2.258157210600584275e-01
-7.767304238876393541e-02
-2.738097293776660113e-01
-3.526645272504869144e-01
-3.306010380837900442e-01
-2.264740358667296505e-01
-5.913829458865005329e-02
1.525514117612636333e-01
3.897403091937996500e-01
6.335736237196885057e-01
8.651965813497251023e-01
1.065754408094769623e+00
1.216506494313762454e+00
1.307741420917737152e+00
1.345164930846566076e+00
1.335993033412405939e+00
1.287451396222484501e+00
1.206767834649624227e+00
1.101170164066610724e+00
9.778861998463108662e-01
8.441437573614867240e-01
7.071706519849643158e-01
5.741537728499157556e-01
4.487914680567927084e-01
3.286785655347915780e-01
2.107941024324378465e-01
9.211711589818273593e-02
-3.037335691946074778e-02
-1.596982788719428503e-01
-2.988786128108297246e-01
-4.509353215875887000e-01
-6.188893680536976527e-01
-8.057246655780885281e-01
-1.011012406421239795e+00
-1.228205200880463366e+00
-1.450118912077038358e+00
-1.669569403132247443e+00
-1.879372537167474544e+00
-2.072344177303905521e+00
-2.241300186662875671e+00
-2.379056976391646039e+00
-2.478433149741152697e+00
-2.532291128437105243e+00
-2.537878122079811671e+00
-2.500549588896568753e+00
-2.426539612314647876e+00
-2.322082275761330195e+00
-2.193411662663884876e+00
-2.046761856449545558e+00
-1.888366940545676442e+00
-1.724460998379508059e+00
-1.561278113378314236e+00
-1.405032706922633157e+00
-1.259805676853047451e+00
-1.125660229379009225e+00
-1.002215066081552752e+00
-8.890888885416037279e-01
-7.859003983401038340e-01
-6.922682970580225081e-01
-6.078112862762827806e-01
-5.321480675758848422e-01
-4.648973425377765922e-01
-4.056815433411552485e-01
-3.545645830876189564e-01
-3.124625113637703455e-01
-2.803885492025140480e-01
-2.593559176367750685e-01
-2.503778376994880150e-01
-2.544675304235465840e-01
-2.726382168418848284e-01
-3.059024246703865857e-01
-3.552313593501102984e-01
-4.215165482614300352e-01
-5.035992899167152093e-01
-5.962751899926438393e-01
-6.938644635476777234e-01
-7.906873256401314443e-01
-8.810639913284676883e-01
-9.593146756711116163e-01
-1.019759593726451641e+00
-1.056718960552927911e+00
-1.064512991208928172e+00
-1.037493195310118521e+00
-9.744642698370408196e-01
-8.832635935836270491e-01
-7.728220120013520322e-01
-6.520703705416969198e-01
-5.299395146561958203e-01
-4.153602897963240004e-01
-3.172635414135802634e-01
-2.445801149594431512e-01
-2.062408558854118001e-01
-2.111383231240803737e-01
-2.621545062444681773e-01
-3.496718596025215064e-01
-4.625142858691583259e-01
-5.895056877153278529e-01
-7.194699678118711139e-01
-8.412282277234486294e-01
-9.435313168591488164e-01
-1.015056434335506186e+00
-1.044477298059945714e+00
-1.020506318402015111e+00
-9.385875628602050602e-01
-8.085190955321848172e-01
-6.419420868810890024e-01
-4.504977073700490720e-01
-2.458271274621502966e-01
-3.957151762064892164e-02
1.566279516913826608e-01
3.311301100108001716e-01
4.722937868744738754e-01
5.685052638098861966e-01
6.134698254614880941e-01
6.125231565680188117e-01
5.725385240940084053e-01
5.003891950040071368e-01
4.029484362625658234e-01
2.870895148341857106e-01
1.596856976834730157e-01
2.761025177495392280e-02
-1.022635559268418315e-01
-2.230716762476712411e-01
-3.299498262056797526e-01
-4.225180669972694036e-01
-5.010067393471647756e-01
-5.656503280609589401e-01
-6.167386154036115231e-01
-6.546007613002948755e-01
-6.795667702893025686e-01
-6.919666469089404970e-01
-6.921303956975112248e-01
-6.803911108004093711e-01
-6.578368314045345278e-01
-6.272919288572946783e-01
-5.918239797287957460e-01
-5.545005605890966915e-01
-5.183892480082779031e-01
-4.865576185564091105e-01
-4.620732488035643737e-01
-4.480037153198335731e-01
-4.474169580654282496e-01
-4.633748473982961524e-01
-4.968556153825007815e-01
-5.439209905538688883e-01
-5.999240467796473908e-01
-6.602178579271286152e-01
-7.201554978635966719e-01
-7.750900404563276780e-01
-8.203745595726026352e-01
-8.513621290797056540e-01
-8.634058228448991956e-01
-8.518700283434331721e-01
-8.156977300093908312e-01
-7.624941526169202177e-01
-7.011607977641127754e-01
-6.406048355647118164e-01
-5.897334712874852114e-01
-5.574539102012139313e-01
-5.526733575746908267e-01
-5.842990186767095251e-01
-6.612381063056136377e-01
-7.923812066259312559e-01
-9.804510636550398672e-01
-1.212854850973251075e+00
-1.474663122530993187e+00
-1.750946432278779996e+00
-2.026775334166886378e+00
-2.287220382145819020e+00
-2.517352130166010671e+00
-2.702241132177899186e+00
-2.826957942131937518e+00
-2.876589832952002102e+00
-2.843293824658018387e+00
-2.737238335422492952e+00
-2.571418266605384861e+00
-2.358828519566659399e+00
-2.112463995666205019e+00
-1.845319596264116901e+00
-1.570390222720287277e+00
-1.300670776394685202e+00
-1.049156158647268411e+00
-8.288269205656011440e-01
-6.480872485543301975e-01
-5.034369759503872777e-01
-3.894559557837090624e-01
-3.007240410842383360e-01
-2.318210848819002856e-01
-1.773269402066738887e-01
-1.318214600884800580e-01
-8.988449755726043988e-02
-4.609590564295266285e-02
4.960970838531739147e-03
6.664715870914179885e-02
1.368084228330989083e-01
2.123751773358042716e-01
2.902778363426340436e-01
3.674468139789771604e-01
4.408125243702356033e-01
5.073053816417617545e-01
5.638557999189492964e-01
6.073941933271891358e-01
6.348524280296455879e-01
6.441900938502077567e-01
6.361968890322162729e-01
6.121454694276335928e-01
5.733084908884181763e-01
5.209586092665293711e-01
4.563684804139161999e-01
3.808107595742170615e-01
2.955561293727763661e-01
2.018689157035006565e-01
1.010127280490509954e-01
-5.263711366093579841e-03
-1.138404254275520583e-01
-2.213568555208114963e-01
-3.244524430314711383e-01
-4.197666293450845743e-01
-5.039388558472112090e-01
-5.736085639234260736e-01
-6.254151949592466897e-01
-6.559981903402544168e-01
-6.619984578504374273e-01
-6.416301904022887470e-01
-5.976729374717115739e-01
-5.337296541657345905e-01
-4.534032955914406027e-01
-3.602968168558635664e-01
-2.580131730660609746e-01
-1.501553193290802724e-01
-4.032621075194351562e-02
6.787119755824491674e-02
1.708345453098814026e-01
2.657705838595140757e-01
3.522965779849570045e-01
4.304766860971414588e-01
5.003750666069333164e-01
5.620558678716164325e-01
6.155815650390759064e-01
6.610111033567750427e-01
6.984029804448288470e-01
7.278156939233669798e-01
7.493077865100701285e-01
7.630015103668238430e-01
7.692139012606580284e-01
7.682991096644607998e-01
7.606112860511112794e-01
7.465045808935093508e-01
7.263331446645286960e-01
7.004511278370594285e-01
6.692126808839868879e-01
6.329719542781845343e-01
5.920832960579940352e-01
5.473685672500773203e-01
5.011181620182471042e-01
4.559100712597760063e-01
4.143222858719308177e-01
3.789327967519749985e-01
3.523195947972047604e-01
3.370606709048802330e-01
3.357340159722683737e-01
3.509176208966441335e-01
3.851890022518443257e-01
4.395664207378279786e-01
5.100382370808194121e-01
5.915805296744318653e-01
6.791709974877498945e-01
7.677896320831640864e-01
8.524165986590641619e-01
9.280320624139118957e-01
9.896161885461441932e-01
1.032149142254201069e+00
1.050611473179370536e+00
1.041823743934043645e+00
1.008702591536315474e+00
9.554254282870580095e-01
8.861696664871452356e-01
8.051127184374476942e-01
7.164319964388115025e-01
6.243049127921630470e-01
5.329088797983501102e-01
4.464213097582431788e-01
3.690194947913084111e-01
3.039900776290118678e-01
2.515889061789425285e-01
2.114277311180416952e-01
1.831183031232741509e-01
1.662723728716032356e-01
1.605016910399931218e-01
1.654180083054104800e-01
1.806330753448169013e-01
2.057586428351749763e-01
2.404064007863734032e-01
2.834307061985502085e-01
3.310384327520712322e-01
3.788580870323647320e-01
4.225181625533324103e-01
4.576471528288614254e-01
4.798735513728371038e-01
4.848258516991491018e-01
4.681325473216742528e-01
4.254221317543100400e-01
3.523232042920798057e-01
2.469776893965799913e-01
1.165520641681569436e-01
-2.976240609673913573e-02
-1.827744561015330893e-01
-3.332928205497741048e-01
-4.721262341449727895e-01
-5.900834315906339222e-01
-6.779731475902872617e-01
-7.266041168473917899e-01
-7.267851403468920113e-01
-6.729617471651309080e-01
-5.729943586400614297e-01
-4.378358213089169060e-01
-2.784389817088801511e-01
-1.057566863772757687e-01
6.925821814870680715e-02
2.356528853318361205e-01
3.824744686348779399e-01
4.987701084169379184e-01
5.735868111555881832e-01
5.996725567182313865e-01
5.838009204396225060e-01
5.360673394757609067e-01
4.665672509826179759e-01
3.853960921162209452e-01
3.026493000325450322e-01
2.284223118875900460e-01
1.728105648373447489e-01
1.459094960378023442e-01
1.578145400630156792e-01
2.149936926068063692e-01
3.097920598253242064e-01
4.311181768220697097e-01
5.678805787005390959e-01
7.089878005642848979e-01
8.433483775167133212e-01
9.598708446613672951e-01
1.047463737101742343e+00
1.095035589941351306e+00
1.091494938283682492e+00
1.029792076181544225e+00
9.190443334850318946e-01
7.724107989935612428e-01
6.030505615065316904e-01
4.241227098233503745e-01
2.487863327433728067e-01
9.020053541610816017e-02
-3.847546019630524589e-02
-1.240823813099846684e-01
-1.534609549324295052e-01
-1.180552206341289323e-01
-2.822693388300350284e-02
1.008031684110627518e-01
2.538143458796317531e-01
4.155858581542909436e-01
5.708969648666508689e-01
7.045269256481807574e-01
8.012550001304945546e-01
8.458604479451797831e-01
8.231225287238000954e-01
7.229129220627176222e-01
5.566045725081274487e-01
3.412441847874764234e-01
9.387895471433743699e-02
-1.684431963987564618e-01
-4.286742832771212597e-01
-6.697663206461074159e-01
-8.746713232309044628e-01
-1.026341305756884204e+00
-1.107728282949364429e+00
-1.107176440447188659e+00
-1.036421117175090112e+00
-9.135389079239079058e-01
-7.566065230573407741e-01
-5.837006816952788890e-01
-4.128981426645888519e-01
-2.622756760418712418e-01
-1.499100519044149760e-01
-9.387804032962765444e-02
-1.122564113947680936e-01
-2.176003075347505700e-01
-3.978547813955984891e-01
-6.341110103684325372e-01
-9.074598833774093487e-01
-1.198992289346889173e+00
-1.489799117201169532e+00
-1.760971255864553831e+00
-1.993599594261382890e+00
-2.168775021315836327e+00
-2.267588425952277387e+00
-2.276024590744952114e+00
-2.202479848193775513e+00
-2.061762209630702447e+00
-1.868680200013548953e+00
-1.638042344300328246e+00
-1.384657167448856585e+00
-1.123333194417022174e+00
-8.688789501627082190e-01
-6.361029596437361988e-01
-4.398137478181256554e-01
-2.918395315111457222e-01
-1.899847093492993688e-01
-1.279325441006951836e-01
-9.936573074507504266e-02
-9.796696213814841403e-02
-1.174189311355734872e-01
-1.514043305930308780e-01
-1.936058533661884906e-01
-2.377061923107282038e-01
-2.773880402823315494e-01
-3.076699344995796337e-01
-3.300294590404945216e-01
-3.478937690039778374e-01
-3.646904268222679324e-01
-3.838469949276117621e-01
-4.087910357522412386e-01
-4.429501117284009859e-01
-4.897517852883321310e-01
-5.526236188642790204e-01
-6.349931748884983795e-01
-7.391274527436709763e-01
-8.615269586249958422e-01
-9.969046008785586999e-01
-1.139972744065689492e+00
-1.285443752747723156e+00
-1.428029991486032380e+00
-1.562443824841873496e+00
-1.683397617376616751e+00
-1.785603733651597302e+00
-1.863774538259627578e+00
-1.913397286953516074e+00
-1.933915991056802675e+00
-1.926034308301418863e+00
-1.890456428730540095e+00
-1.827886542387340052e+00
-1.739028839314998187e+00
-1.624587509556654208e+00
-1.485266743155549962e+00
-1.321770730154829376e+00
-1.134803660597674568e+00
-9.259893103804885950e-01
-7.017818689108628050e-01
-4.702311954978692921e-01
-2.393925543146242230e-01
-1.732120953429812718e-02
1.879275746699363425e-01
3.682985341249585542e-01
5.157364046574861582e-01
6.221859220944054858e-01
6.795918222625443317e-01
6.816551170373892354e-01
6.315500501178109571e-01
5.356306451393760826e-01
4.002532633411645113e-01
2.317742659621766788e-01
3.655001424141609417e-02
-1.790631305820904740e-01
-4.087088069622180075e-01
-6.460306414892382776e-01
-8.846722453878141934e-01
-1.118588193622799487e+00
-1.343457199258898616e+00
-1.555552137239422761e+00
-1.751146436302901011e+00
-1.926513525188036757e+00
-2.077926832633471665e+00
-2.201659787377844957e+00
-2.293985818159813839e+00
-2.351178353718032188e+00
-2.369510822791099258e+00
-2.346697437295632849e+00
-2.288664515972290037e+00
-2.204243597945342970e+00
-2.102269585521741035e+00
-1.991577381008502678e+00
-1.881001886712570181e+00
-1.779378004940933344e+00
-1.695540638000555322e+00
-1.638324688198404600e+00
-1.616565057841464315e+00
-1.637007714407397341e+00
-1.694157567478152382e+00
-1.778074317135880600e+00
-1.878811382968859967e+00
-1.986422184565439508e+00
-2.090960144340489268e+00
-2.182478736950142384e+00
-2.251031483049411808e+00
-2.286671904865227756e+00
-2.279453524624490690e+00
-2.221441978169604425e+00
-2.116826487643776122e+00
-1.974314934148293510e+00
-1.802622874388722263e+00
-1.610465865070587865e+00
-1.406559462899554358e+00
-1.199619224581170762e+00
-9.983607068210026414e-01
-8.114994663246252182e-01
-6.477510597976036122e-01
-5.144029560190680472e-01
-4.098941568301169847e-01
-3.292790619566545174e-01
-2.676052486162005528e-01
-2.199202940263051964e-01
-1.812717754044847196e-01
-1.467072699682767933e-01
-1.112743549351966205e-01
-7.002060752279359868e-02
-1.799360494858800313e-02
4.858305899220492774e-02
1.259917771278848686e-01
2.075734283156550619e-01
2.866619566395362528e-01
3.565915309786870102e-01
4.106964541305571093e-01
4.423110306745496323e-01
4.447695651900881453e-01
4.114063622566014322e-01
3.355557264535189432e-01
2.123370523725872649e-01
4.857028029145768477e-02
-1.442123258626167859e-01
-3.544655593461550347e-01
-5.706442134156490820e-01
-7.812030813275708807e-01
-9.745969563384538903e-01
-1.139280631704647995e+00
-1.263708900682706249e+00
-1.336336556529102548e+00
-1.347532348868961893e+00
-1.300570790426309076e+00
-1.204059018589973995e+00
-1.066621029653477049e+00
-8.968808199102829004e-01
-7.034623856538683162e-01
-4.949897231777225515e-01
-2.800868287752636965e-01
-6.737769874008894821e-02
1.345136706343814936e-01
3.176607314670143456e-01
4.789755498260603872e-01
6.174254179523931407e-01
7.320050606856890463e-01
8.217142999053939079e-01
8.855529574909227764e-01
9.225208553216909246e-01
9.316178152771096288e-01
9.118436592365790627e-01
8.621982090795271558e-01
7.823862672668001617e-01
6.771457537340582755e-01
5.534029525833061847e-01
4.180931037809397233e-01
2.781514472934700777e-01
1.405132230872912780e-01
1.211367112883704814e-02
-1.001119686154603172e-01
-1.892284561791680031e-01
-2.483005515958664478e-01
-2.715602362354645471e-01
-2.618162533651058888e-01
-2.257021014000041292e-01
-1.698689087118542829e-01
-1.009678036723247463e-01
-2.564991465315563310e-02
4.943362398919359801e-02
1.176310526148043600e-01
1.722894470403538991e-01
2.067566205110723254e-01
2.154431591169068960e-01
2.007726389260855171e-01
1.688328507801235556e-01
1.257304969570006703e-01
7.757227973469479898e-02
3.046490139117447385e-02
-9.484935795558322238e-03
-3.617052954753122163e-02
-4.348517758676688494e-02
-2.532217763528475662e-02
2.341013825212283003e-02
9.989841439645971710e-02
1.976220413050819025e-01
3.100391007978832714e-01
4.306076746947514744e-01
5.527858448156233173e-01
6.700316929803132870e-01
7.758033010087506121e-01
8.635587507208233315e-01
9.267561239364334735e-01
9.597182931903593950e-01
9.637037251954104766e-01
9.433059602630048390e-01
9.031397826751160762e-01
8.478199767137009069e-01
7.819613266607198243e-01
7.101786412067946364e-01
6.370999913416167670e-01
5.673886088866886279e-01
5.057134868219655965e-01
4.563059595979870875e-01
4.197820431626643756e-01
3.949753713310868442e-01
3.807070523147082497e-01
3.757981943249897316e-01
3.790699055734074729e-01
3.893432942714215583e-01
4.054394686305027307e-01
4.261795368621086322e-01
4.503846071777139470e-01
4.766646068458944563e-01
5.018322605930215508e-01
5.217919611198050811e-01
5.324410880571985860e-01
5.296770210361598785e-01
5.093971396876443292e-01
4.674988236425968724e-01
3.998794525319612214e-01
3.024364059867213905e-01
1.710670636378281984e-01
2.881305399757477792e-03
-1.943780738084796844e-01
-4.074595029430643223e-01
-6.230648607480024914e-01
-8.278960096079657216e-01
-1.008653401045203069e+00
-1.152035008902345226e+00
-1.244738555851705009e+00
-1.273461764565563037e+00
-1.224902357716199708e+00
-1.087876716986676762e+00
-8.703508977193696872e-01
-5.904600481802346756e-01
-2.664330325827396484e-01
8.350128485936558764e-02
4.411140399325541583e-01
7.881763684232947487e-01
1.106459406117986877e+00
1.377734288803028395e+00
1.583772152264917521e+00
1.708673845441236239e+00
1.758249171621114382e+00
1.750123153110048957e+00
1.702033797161478290e+00
1.631697604059679119e+00
1.556825697346676973e+00
1.495129200564363270e+00
1.464319237254765538e+00
1.482106930959821156e+00
1.566203405221448630e+00
1.732279651764206063e+00
1.976402784646305477e+00
2.283702136850410902e+00
2.639077831386819284e+00
3.027298882766654486e+00
3.433126691236813244e+00
3.841322657044089262e+00
4.236648180435322431e+00
4.603864661657468105e+00
4.927733500957348411e+00
5.194300520254834019e+00
5.402342316005489309e+00
5.557911913364604217e+00
5.667147701787974334e+00
5.736188070731540023e+00
5.771171409651046247e+00
5.778236108002356985e+00
5.763520555241390397e+00
5.733163140823888781e+00
5.693302254205779178e+00
5.650046333910843543e+00
5.609197521786932761e+00
5.576378574457374171e+00
5.557209980412990191e+00
5.557312228144702715e+00
5.582305806143557092e+00
5.637811202900447682e+00
5.729448906906321248e+00
5.862839406652204488e+00
6.043603190629002420e+00
6.276392550788450819e+00
6.555622933090857529e+00
6.869556305782841932e+00
7.206370363708494153e+00
7.554242801711755995e+00
7.901351314636591461e+00
8.235873597327055151e+00
8.545987344627107518e+00
8.819870251380699244e+00
9.045700012431911574e+00
9.212787403325808810e+00
9.322789805764967852e+00
9.384954943294605556e+00
9.408641208004471679e+00
9.403206991984291108e+00
9.378010687323893535e+00
9.342410686113005625e+00
9.305765380441444634e+00
9.277433162398944333e+00
9.266772424075266912e+00
9.282284851630489442e+00
9.322831626251275594e+00
9.381202310273724976e+00
9.450091721211817841e+00
9.522194676579520234e+00
9.590205993890814185e+00
9.646820490659642644e+00
9.684732984400000078e+00
9.696673814747480691e+00
9.675704242308185599e+00
9.615746244187544534e+00
9.518636131707534531e+00
9.391315075268735768e+00
9.240809326256300693e+00
9.074145136055271621e+00
8.898348756050840080e+00
8.720446437628176284e+00
8.547464432172336757e+00
8.386428991068479277e+00
8.244366365701802479e+00
8.127715693302771882e+00
8.035862844982474940e+00
7.963532509515487412e+00
7.905366561486110832e+00
7.856006875478751539e+00
7.810095326077595601e+00
7.762273787867011166e+00
7.707184135431385918e+00
7.639468243354889054e+00
7.553767986221906483e+00
7.445007505175743390e+00
7.311616506620522316e+00
7.154397581895913127e+00
6.974198181979110345e+00
6.771865757847131739e+00
6.548247760477302393e+00
6.304217048606650664e+00
6.040793743920856329e+00
5.759050895805381209e+00
5.460061622891118738e+00
5.145150406883972849e+00
4.818870177207440264e+00
4.488012078378592840e+00
4.159412202504424450e+00
3.839911964851391968e+00
3.536374073322605671e+00
3.255666558980876868e+00
3.004657452888661151e+00
2.790214786108674794e+00
2.619206589703627852e+00
2.497668625113587115e+00
2.420577559373347398e+00
2.375057792172104332e+00
2.348066490386441885e+00
2.326560820893287751e+00
2.297497950569241887e+00
2.247835046291006389e+00
2.164529274935391712e+00
2.034537803379209198e+00
1.844817798499073458e+00
1.583496648592024769e+00
1.254795724915529487e+00
8.746390938288253203e-01
4.592147375805035736e-01
2.458169362944939706e-02
-4.136794374029708621e-01
-8.400989953365336493e-01
-1.239207319990946354e+00
-1.595534751185823774e+00
-1.893611628740803576e+00
-2.118827253307028702e+00
-2.268802191580411964e+00
-2.350264020790215014e+00
-2.370157322499929720e+00
-2.335426678272999101e+00
-2.253016669672830652e+00
-2.129871878263012164e+00
-1.972936885606986879e+00
-1.789156273268180275e+00
-1.585474622810080225e+00
-1.368922263093103275e+00
-1.147794422690249228e+00
-9.313508604671356661e-01
-7.288756211813764985e-01
-5.496527495905367822e-01
-4.029662904522779421e-01
-2.981002885241417211e-01
-2.443387885638075296e-01
-2.509658353288890531e-01
-3.272654735769149337e-01
-4.813923168587046497e-01
-7.042343631421590366e-01
-9.732494001179851084e-01
-1.265662796394081857e+00
-1.558718452687517741e+00
-1.829660269715184695e+00
-2.055732148194312714e+00
-2.214177988841595557e+00
-2.282241692374146425e+00
-2.237167159509053871e+00
-2.057863477089024951e+00
-1.749635780375430771e+00
-1.338893481024503007e+00
-8.526361866203182593e-01
-3.178635047471574659e-01
2.384249570107203897e-01
7.892295910691919936e-01
1.307550789844251771e+00
1.766388945751123707e+00
2.138744451205951247e+00
2.398990360930755017e+00
2.544072328285416962e+00
2.589414982811556687e+00
2.550986601506326501e+00
2.444755461367030591e+00
2.286689839390896317e+00
2.092758012575115956e+00
1.878928257916993250e+00
1.661168852413580588e+00
1.455451572198944721e+00
1.277458498025769940e+00
1.134354764934728976e+00
1.025889231067773188e+00
9.515804483011121029e-01
9.109469685108452230e-01
9.035073435731453273e-01
9.287801253641315702e-01
9.862838657599697356e-01
1.075537116636801516e+00
1.196058429870867412e+00
1.347020762903697655e+00
1.521471352083692885e+00
1.707200311453162866e+00
1.891827154706952507e+00
2.062971395539872077e+00
2.208252547646787356e+00
2.315290124722539034e+00
2.371703640461937823e+00
2.365112608559835294e+00
2.283136542711038608e+00
2.114255566826698907e+00
1.862800478063613152e+00
1.547029508720654256e+00
1.185674835070244182e+00
7.974686333847739172e-01
4.011411756195476519e-01
1.541511646181448203e-02
-3.409885457148841281e-01
-6.493421492638254966e-01
-8.909107883387469284e-01
-1.047879912203912856e+00
-1.120065943945110831e+00
-1.123146082038013027e+00
-1.073362961854175124e+00
-9.869592187650810811e-01
-8.801774881421886576e-01
-7.692604053570630818e-01
-6.704506057811809860e-01
-5.999907247860247761e-01
-5.741233977431350333e-01
-6.084095255906680766e-01
-7.048287496140733799e-01
-8.528521776503006357e-01
-1.041484183764927574e+00
-1.259729142023675807e+00
-1.496591426492180243e+00
-1.741075411236086667e+00
-1.982185470321089493e+00
-2.208925977812835395e+00
-2.410301307776969271e+00
-2.575625152808351359e+00
-2.700626056628152583e+00
-2.787081319833622839e+00
-2.837004263434365292e+00
-2.852408208439906723e+00
-2.835321794823480790e+00
-2.787989295369423637e+00
-2.712814293032037138e+00
-2.612204100602423473e+00
-2.488566030871652845e+00
-2.344451597582070335e+00
-2.185527593227591492e+00
-2.020468174855790888e+00
-1.858070109216807042e+00
-1.707130163060451178e+00
-1.576445103136659753e+00
-1.474811696195359012e+00
-1.411026708986469425e+00
-1.393886908259915458e+00
-1.432189060765634014e+00
-1.534238899345163443e+00
-1.697283719017923076e+00
-1.907641563613719393e+00
-2.151165281499119786e+00
-2.413707721040225795e+00
-2.681121730603552411e+00
-2.939260158555514479e+00
-3.173975853262519742e+00
-3.371121663090941301e+00
-3.516550436407190894e+00
-3.596507227481680946e+00
-3.606451533071558746e+00
-3.551166209562093279e+00
-3.435839850081612301e+00
-3.265592296688185847e+00
-3.045509258459847768e+00
-2.780676198072219663e+00
-2.476178578200955549e+00
-2.137101861521723656e+00
-1.768531510710142252e+00
-1.375692199973640006e+00
-9.672231769053951655e-01
-5.553007886833155604e-01
-1.522651088050248624e-01
2.295437892320388307e-01
5.777858319298883050e-01
8.801209457910814660e-01
1.124209057318025229e+00
1.297710093013100252e+00
1.388283979378680755e+00
1.384087309808881283e+00
1.286005310990216532e+00
1.108422229206895482e+00
8.663732217003724534e-01
5.748934457120564723e-01
2.490180584831775401e-01
-9.621778274441711298e-02
-4.457789207294839962e-01
-7.846301982306091993e-01
-1.097736458006347116e+00
-1.370345100345490952e+00
-1.595257192515347366e+00
-1.773396823228168939e+00
-1.906068530985492560e+00
-1.994576836561623878e+00
-2.040226260730852115e+00
-2.044321324267504458e+00
-2.008166547945849256e+00
-1.933066452540216584e+00
-1.820325558824891887e+00
-1.671399384856947945e+00
-1.491978994699683980e+00
-1.292463721647966857e+00
-1.083498772854165182e+00
-8.757293554706692129e-01
-6.798006766498473352e-01
-5.063622890300106816e-01
-3.660811271937967071e-01
-2.696284712096520542e-01
-2.276756011460544238e-01
-2.505083847268879671e-01
-3.370868669350933211e-01
-4.734812883013551077e-01
-6.450620391211817628e-01
-8.371995096901118094e-01
-1.035264090303643858e+00
-1.224626171257348961e+00
-1.390656142846833809e+00
-1.518724398692155253e+00
-1.594221018546245539e+00
-1.602959110202348159e+00
-1.541764179675407354e+00
-1.420277481998198699e+00
-1.248863297536475292e+00
-1.037885906656051516e+00
-7.977095897226943455e-01
-5.386986271021793060e-01
-2.712172991602638250e-01
-5.629886262644392958e-03
2.476993312246628665e-01
4.785474402901646052e-01
6.812643269590769046e-01
8.556553594190227097e-01
1.001845535512676300e+00
1.119959852106850784e+00
1.210122810339028687e+00
1.272457610545000506e+00
1.307087242278059724e+00
1.314134695091449423e+00
1.293722958538507051e+00
1.246059246109899155e+00
1.174213604769958730e+00
1.084753114561620491e+00
9.844575136080160327e-01
8.801065400322229948e-01
7.784799319573698639e-01
6.863573996829811508e-01
6.105131906142683418e-01
5.577095710427836250e-01
5.347072177891809552e-01
5.481015540361189320e-01
5.985788492600467858e-01
6.794345340184532178e-01
7.834977902003861239e-01
9.035977996949412505e-01
1.032563744391201022e+00
1.163224806178264625e+00
1.288410166945173074e+00
1.400949008581029886e+00
1.493670512974913045e+00
1.559532724989590058e+00
1.596346879075255742e+00
1.608139681354913142e+00
1.599344395860776258e+00
1.574394286625077743e+00
1.537722617679997628e+00
1.493762653057763456e+00
1.446947656790592562e+00
1.401710892910711603e+00
1.362485625450305715e+00
1.333665664218029123e+00
1.318077868393978447e+00
1.316494174243579396e+00
1.329547215221482226e+00
1.357869914612953366e+00
1.402110278468154059e+00
1.462938453054234422e+00
1.541026351477330802e+00
1.637045886843630171e+00
1.751668972259296631e+00
1.885506473143141681e+00
2.036609135717754704e+00
2.199589671862907103e+00
2.368819363817964430e+00
2.538669493822243162e+00
2.703511344115025139e+00
2.857716196935622843e+00
2.995655334523345203e+00
3.111700039117504257e+00
3.200221592957384953e+00
3.255695288341269755e+00
3.277208452525492088e+00
3.270191055327317908e+00
3.240534251107585639e+00
3.194129194227112389e+00
3.136867039046715266e+00
3.074638939927218484e+00
3.013336051229425383e+00
2.958849527314162842e+00
2.917070522542248856e+00
2.893810405650001805e+00
2.891134282633728070e+00
2.905830839774074636e+00
2.934287081070123815e+00
2.972885415078539317e+00
3.018008051858344754e+00
3.066037201468568618e+00
3.113362561799224437e+00
3.156403782064244989e+00
3.191587999308548085e+00
3.215374333691037645e+00
3.225814540012772902e+00
3.223257622204084516e+00
3.208231445262629489e+00
3.181263874186088358e+00
3.142882773972125676e+00
3.093616009618405105e+00
3.033991446122598745e+00
2.964536948482371148e+00
2.885780381695388197e+00
2.798271860493658281e+00
2.703738416371905373e+00
2.605645790720594324e+00
2.507599725079296960e+00
2.413205960987533594e+00
2.326070239984981303e+00
2.249798303611160399e+00
2.187995893405644043e+00
2.144268750907992072e+00
2.122222617657793187e+00
2.125406930563384922e+00
2.154213349044355130e+00
2.204257884753730856e+00
2.270759163503722533e+00
2.348935811106508620e+00
2.434006453374343515e+00
2.521189716119280888e+00
2.605704225153590681e+00
2.682768606289453572e+00
2.747601485339060456e+00
2.795457449836342700e+00
2.823748790620569160e+00
2.833232238654192159e+00
2.824952218673716153e+00
2.799953155415630501e+00
2.759279473616454315e+00
2.703975598012692494e+00
2.635085953340843723e+00
2.553654964337412903e+00
2.460727055738892055e+00
2.357359169979944102e+00
2.245410432561323333e+00
2.128013673745092760e+00
2.008414911891300836e+00
1.889860165360040867e+00
1.775595452511360417e+00
1.668866791705287289e+00
1.572920201301949872e+00
1.491002046925968827e+00
1.426361288429951246e+00
1.382210462742496260e+00
1.359183502074894578e+00
1.353719917775849657e+00
1.361874288098136709e+00
1.379701191294548268e+00
1.403255205617856882e+00
1.428590909320889502e+00
1.451762880656453092e+00
1.468825697877266023e+00
1.475833939236141035e+00
1.468878339856034998e+00
1.446709524431591065e+00
1.412510829977624560e+00
1.369885571231166610e+00
1.322437062929296081e+00
1.273768619809044322e+00
1.227483556607457560e+00
1.187185188061567809e+00
1.156476828908457044e+00
1.138961793885153728e+00
1.138196423512230604e+00
1.154021895410428877e+00
1.179935821016104391e+00
1.208815512119647773e+00
1.233538280511462082e+00
1.246981437981933949e+00
1.242022199654289727e+00
1.211537323507285491e+00
1.148403432517003608e+00
1.045497149639705192e+00
8.957701458687081786e-01
6.985711655287595301e-01
4.644412151974173231e-01
2.050505009496652598e-01
-6.793077113946749401e-02
-3.428323949950006777e-01
-6.079841645419350460e-01
-8.517158737052883399e-01
-1.062357316410033725e+00
-1.228238286581249117e+00
-1.337765029368671144e+00
-1.386385904690246917e+00
-1.382174903166168090e+00
-1.334519936639317894e+00
-1.252808916952570018e+00
-1.146429755948802587e+00
-1.024770365470863531e+00
-8.972186573616358629e-01
-7.731675866721569035e-01
-6.620302812860686670e-01
-5.731777624593643594e-01
-5.112744133669994140e-01
-4.723367714602726974e-01
-4.514533240030798034e-01
-4.437126166688055151e-01
-4.442033728453825825e-01
-4.480143495963763156e-01
-4.502343039853568540e-01
-4.459519930758701345e-01
-4.302561739314890721e-01
-3.982628989819050891e-01
-3.480500336877170864e-01
-2.832729078325412209e-01
-2.082039241202213176e-01
-1.271154852545930414e-01
-4.427999393949848955e-02
3.603014712124073815e-02
1.095425352237806432e-01
1.719847676642881906e-01
2.190844417389203602e-01
2.465896761610281429e-01
2.526771047345889309e-01
2.402108261307315806e-01
2.125894634175558573e-01
1.732116396631606103e-01
1.254759779356280636e-01
7.278110130304610292e-02
1.852563283349818388e-02
-3.389180427060513312e-02
-8.107227490138620152e-02
-1.196320591055230753e-01
-1.482846007504563246e-01
-1.698930609053694585e-01
-1.878081078596196274e-01
-2.053803964027647311e-01
-2.259605813243656114e-01
-2.528993174139739231e-01
-2.895472594611516182e-01
-3.392550622554560413e-01
-4.053733805864464523e-01
-4.912317925251784012e-01
-5.971606780465780195e-01
-7.174069537817558961e-01
-8.454810923612045004e-01
-9.748935664156140879e-01
-1.099154848575608856e+00
-1.211775411471817110e+00
-1.306265727734866156e+00
-1.376136269995384076e+00
-1.414897510883995180e+00
-1.416089901812838114e+00
-1.377960238640586255e+00
-1.308542596030397354e+00
-1.217091412411899443e+00
-1.112861126214890861e+00
-1.005106175869011853e+00
-9.030809998039486253e-01
-8.160400364493886061e-01
-7.532377242350186686e-01
-7.239285021682011489e-01
-7.373322327472333626e-01
-7.966490214310824047e-01
-8.922429033326368941e-01
-1.012829714262211134e+00
-1.147125290030198919e+00
-1.283845466446755568e+00
-1.411706079322271101e+00
-1.519422964467057824e+00
-1.595711957691432925e+00
-1.629288894805711152e+00
-1.608906018011452943e+00
-1.530369546444117823e+00
-1.404909749985371770e+00
-1.245796015493588982e+00
-1.066297729827040630e+00
-8.796842798443099687e-01
-6.992250524036731640e-01
-5.381894343635080791e-01
-4.098468125821886909e-01
-3.274665739180880331e-01
-3.042861822569811192e-01
-3.466175283026734499e-01
-4.452423603358996451e-01
-5.888289117922184124e-01
-7.660454161071871271e-01
-9.655601067164859552e-01
-1.176041217055436627e+00
-1.386156980105179848e+00
-1.584575619922197198e+00
-1.759965352413596085e+00
-1.901011612245579574e+00
-2.000607308443876686e+00
-2.061322310134978242e+00
-2.087081922513096099e+00
-2.081811450772434569e+00
-2.049436200107203288e+00
-1.993881475711570594e+00
-1.919072582779809411e+00
-1.828934826506102951e+00
-1.727392205701623551e+00
-1.618361437597370500e+00
-1.505188384346743291e+00
-1.389875248840390931e+00
-1.274230561696787944e+00
-1.160062853534407523e+00
-1.049180654971728188e+00
-9.433924966271656221e-01
-8.445069091193136979e-01
-7.543324230665868768e-01
-6.746775690874609044e-01
-6.073483495051545944e-01
-5.533510438888898930e-01
-5.117564810577199808e-01
-4.813484577303044909e-01
-4.609107706253001702e-01
-4.492272170756843042e-01
-4.450816011617882428e-01
-4.472577311369744235e-01
-4.545394153164819540e-01
-4.657104620155566033e-01
-4.795549681918204743e-01
-4.949621220179445946e-01
-5.110820497205891266e-01
-5.271046874572093976e-01
-5.422199713852617897e-01
-5.556178376622025183e-01
-5.664882224454869108e-01
-5.740210618925710717e-01
-5.774062921609108834e-01
-5.758338494079585645e-01
-5.684935591605529970e-01
-5.545284659335405486e-01
-5.329624315579269966e-01
-5.028006148273862497e-01
-4.630481745355893297e-01
-4.127102694762079249e-01
-3.507920584429143895e-01
-2.762987002293811334e-01
-1.882353536292257767e-01
-8.560717743622060782e-02
3.257665549530647242e-02
1.653156228645648596e-01
3.064031577192658506e-01
4.487924723689832307e-01
5.854367974080034731e-01
7.092893709589367379e-01
8.133034311677446171e-01
8.904322161803877034e-01
9.336289641428259234e-01
9.358469132010093228e-01
8.900461337338942958e-01
7.932088590180642607e-01
6.531088070288747494e-01
4.793107246299359581e-01
2.813793586848575834e-01
6.887945605724710152e-02
-1.486242363892847640e-01
-3.615669717911299541e-01
-5.603840032846777452e-01
-7.355105840063204115e-01
-8.773872173822843124e-01
-9.801704582316321801e-01
-1.048249989924282533e+00
-1.087761777795590579e+00
-1.104841787180911528e+00
-1.105625983415601032e+00
-1.096250331835012970e+00
-1.082850797774501883e+00
-1.071563346569423647e+00
-1.068523943555133471e+00
-1.079864708274337115e+00
-1.108395662586690866e+00
-1.147536369074550811e+00
-1.189058875926261694e+00
-1.224735231330347895e+00
-1.246337483475333352e+00
-1.245637680549742887e+00
-1.214407870742100881e+00
-1.144420102240930381e+00
-1.027446423234757988e+00
-8.552642483408303686e-01
-6.254085832444772342e-01
-3.521218032597527858e-01
-5.265961727957521599e-02
2.557222658030224305e-01
5.557681370950030564e-01
8.302222877033365034e-01
1.061829008734986202e+00
1.233332591296917524e+00
1.327477326496095289e+00
1.327013965849612065e+00
1.223481185427497175e+00
1.034598733006975468e+00
7.829401581119447284e-01
4.910790102659962075e-01
1.815888389928045354e-01
-1.229568061839561161e-01
-3.999843757406116307e-01
-6.269203200280933919e-01
-7.811909991653389618e-01
-8.402275238439638194e-01
-7.912974605493298119e-01
-6.517643405799807832e-01
-4.447266540571064852e-01
-1.932828911022846652e-01
7.946845816324932255e-02
3.504289036181739703e-01
5.964999551411519496e-01
7.945831226108593937e-01
9.215799159059662182e-01
9.543957602549352215e-01
8.792012486335372135e-01
7.112703491043580462e-01
4.715766189294182675e-01
1.810936153711834584e-01
-1.392051043082922490e-01
-4.683459828468239938e-01
-7.853554629822294686e-01
-1.069259987452338967e+00
-1.299085998994967683e+00
-1.453862154522771011e+00
-1.519895825843717851e+00
-1.506974307769238797e+00
-1.429610458838552534e+00
-1.302317137590779161e+00
-1.139607202565280586e+00
-9.559935171336185755e-01
-7.659894153802621064e-01
-5.841090899020007221e-01
-4.248668245821577427e-01
-3.027760310164387958e-01
-2.281751946741684967e-01
-1.975710179340647854e-01
-2.046098500899690420e-01
-2.429391791942266399e-01
-3.062067610777224891e-01
-3.880603515712395812e-01
-4.821477065056650191e-01
-5.821165817118476582e-01
-6.816147330206492327e-01
-7.742900866132504945e-01
-8.550530136939900050e-01
-9.231098653368494666e-01
-9.785799639310623910e-01
-1.021582631865855184e+00
-1.052237191530486449e+00
-1.070662965314148174e+00
-1.076979275606105624e+00
-1.071305444795584538e+00
-1.053760795271820649e+00
-1.024464691206936395e+00
-9.840580795261344438e-01
-9.350050611549571844e-01
-8.801678496802392004e-01
-8.224085927171749244e-01
-7.645871599931081120e-01
-7.095606181455669237e-01
-6.601858613807147780e-01
-6.193197839046361564e-01
-5.898192799234256434e-01
-5.745412039463686504e-01
-5.753992267727151555e-01
-5.909203459800002056e-01
-6.188717102936496239e-01
-6.570204684390681393e-01
-7.031337691416729152e-01
-7.549787611268777843e-01
-8.103225931201298859e-01
-8.669324138467767726e-01
-9.225753720322675822e-01
-9.750186244468820318e-01
-1.022470734042918661e+00
-1.064768490086608121e+00
-1.102124023515594020e+00
-1.134749465267542057e+00
-1.162856946280093062e+00
-1.186658597490909406e+00
-1.206366549837646795e+00
-1.222192934257936958e+00
-1.234349881689443151e+00
-1.243049530020267301e+00
-1.249757586440203516e+00
-1.260688629021669005e+00
-1.283154148939936956e+00
-1.324442029046671188e+00
-1.391839425034391065e+00
-1.492633492595598854e+00
-1.634111387422815920e+00
-1.823560265208671982e+00
-2.068267281645464806e+00
-2.375519588729211762e+00
-2.747410914127185855e+00
-3.165815166362144772e+00
-3.607686096153706945e+00
-4.049977454221471262e+00
-4.469642991285042832e+00
-4.843636458064040973e+00
-5.148911605278060577e+00
-5.362422183646716078e+00
-5.461121943889646779e+00
-5.421964636726309905e+00
-5.230123073929972222e+00
-4.903646311487992904e+00
-4.468802466441281318e+00
-3.951859655830769036e+00
-3.379085996697355210e+00
-2.776749606081954536e+00
-2.171118601025502137e+00
-1.588461098568883401e+00
-1.055045215753028787e+00
-5.971388154934116343e-01
-2.348434959454647197e-01
3.707114908574909995e-02
2.303416612181671264e-01
3.567045867007226367e-01
4.278964717822755226e-01
4.556538627117632245e-01
4.517133057380632866e-01
4.278113471100536969e-01
3.956845330766756152e-01
3.670694098867566257e-01
3.515789607367328928e-01
3.498600403130788239e-01
3.601935216880952639e-01
3.808602648158366799e-01
4.101411296504284820e-01
4.463169761458909424e-01
4.876686642563639040e-01
5.324770539358935073e-01
5.790230051385245602e-01
6.255873778184015688e-01
6.705538490382371153e-01
7.127521148740605383e-01
7.511327855205651716e-01
7.846464733761111532e-01
8.122437908390536254e-01
8.328753503078527576e-01
8.454917641808565865e-01
8.490165289007711724e-01
8.422090723041422144e-01
8.237674318020804520e-01
7.937814456106286887e-01
7.585447346633609200e-01
7.260786646208465811e-01
7.044046738610318936e-01
7.015442007618273301e-01
7.255186837011398104e-01
7.843495610570152543e-01
8.860582712073643563e-01
1.038666252530089817e+00
1.250194943403232450e+00
1.525589871687111465e+00
1.855710455681284454e+00
2.227386244675783722e+00
2.627446465136529241e+00
3.042720343529547122e+00
3.460037106320724920e+00
3.866225979975932425e+00
4.248116190961199301e+00
4.592536965742407773e+00
4.886317530785430741e+00
5.119446095527418805e+00
5.296775440751293473e+00
5.427526548369041137e+00
5.520920989724039885e+00
5.586180336136803426e+00
5.632509179019927537e+00
5.669046422595798163e+00
5.704915089172644116e+00
5.749238201058889608e+00
5.811138780562811412e+00
5.897688039602186016e+00
6.006036319200866558e+00
6.130339487232320472e+00
6.264752785920211231e+00
6.403431457488263590e+00
6.540530744160133914e+00
6.670205888159478569e+00
6.786612131710046292e+00
6.883904717035459697e+00
6.956238886359460416e+00
6.999010066825290366e+00
7.013775796194005707e+00
7.004003850447428903e+00
6.973162586659057638e+00
6.924720361902525489e+00
6.862145533251379881e+00
6.788906457779167347e+00
6.708471492559452187e+00
6.624308994665800476e+00
6.539887321171768519e+00
6.458284038714547037e+00
6.380581250705457563e+00
6.307226163192835244e+00
6.238806442603209490e+00
6.176262572986434662e+00
6.120589440515905366e+00
6.072781931364922947e+00
6.033834931706879345e+00
6.004743327715170942e+00
5.986502005563092865e+00
5.979187678283423679e+00
5.978060847630264796e+00
5.976815922865439390e+00
5.969148698205678727e+00
5.948754967867762922e+00
5.909330526068343303e+00
5.844571167024109393e+00
5.748172684951721401e+00
5.613830874067936350e+00
5.435241528589537907e+00
5.207852566005585437e+00
4.936562735840640315e+00
4.629443048855075737e+00
4.294566847885130656e+00
3.940007475767234979e+00
3.573838275337776427e+00
3.204132589433130285e+00
2.838963760889760657e+00
2.486405132543879404e+00
2.154530047231929313e+00
1.850281411051100777e+00
1.574407978411674680e+00
1.325629009630082678e+00
1.102674299590605145e+00
9.042736431772493422e-01
7.291568352742878734e-01
5.760536707660683930e-01
4.436939445364789236e-01
3.308074514698542412e-01
2.361239864504723895e-01
1.577229221073798704e-01
8.997638551074305102e-02
2.594498092665524502e-02
-4.131220564223794800e-02
-1.187360881933162693e-01
-2.132675807242081500e-01
-3.318471455180008745e-01
-4.814132023954441064e-01
-6.689035941773981975e-01
-9.012561636495192152e-01
-1.183309905596759082e+00
-1.507604666199151122e+00
-1.862213987115705738e+00
-2.235205099707151533e+00
-2.614645235334343454e+00
-2.988601625357936609e+00
-3.345141501138797935e+00
-3.672332094037629169e+00
-3.958251841362298684e+00
-4.191302398530798001e+00
-4.362213552465926014e+00
-4.473566540305910166e+00
-4.532352566974213737e+00
-4.545570328370649449e+00
-4.520218520395049566e+00
-4.463295838947265892e+00
-4.381800979927142237e+00
-4.282732639234515304e+00
-4.173089512769147191e+00
-4.059870296431035364e+00
-3.949529861012460064e+00
-3.845153523936854167e+00
-3.748537724278546701e+00
-3.661476303056531378e+00
-3.585763101289872079e+00
-3.523191959997629574e+00
-3.475556720198777150e+00
-3.444651222912397781e+00
-3.432269309157529147e+00
-3.440204819953224469e+00
-3.469120191787662399e+00
-3.512468132265171405e+00
-3.560871420996355674e+00
-3.604946145203768992e+00
-3.635308392109807940e+00
-3.642574248937032966e+00
-3.617366931713313249e+00
-3.550415621658541632e+00
-3.432530714220082491e+00
-3.254524673383794919e+00
-3.009534550043628798e+00
-2.705934125529497969e+00
-2.358233681732672338e+00
-1.980960354989339312e+00
-1.588641281635913671e+00
-1.195803598008580604e+00
-8.169744404436999341e-01
-4.666809452776303213e-01
-1.594502488465576739e-01
9.019051251315216011e-02
2.698006217582898381e-01
3.810080384168605394e-01
4.312538592261929704e-01
4.279975589516100687e-01
3.786986123586167929e-01
2.908164942124870089e-01
1.718106792787216230e-01
2.914064232265312082e-02
-1.297341418903814603e-01
-2.973541985948913169e-01
-4.663997123995144989e-01
-6.305197965538695826e-01
-7.837769335866247022e-01
-9.202457324934640859e-01
-1.033958679089636234e+00
-1.118557564440037622e+00
-1.167482628312360715e+00
-1.174172433235448176e+00
-1.132065541738145775e+00
-1.034600516349336807e+00
-8.771482110883830341e-01
-6.688748245892073285e-01
-4.249446745375708989e-01
-1.605466258782701772e-01
1.091304564443242864e-01
3.688977074857098248e-01
6.035662623013867689e-01
7.979472559468500092e-01
9.368518234776201936e-01
1.005091099949161793e+00
9.899052377742523223e-01
8.963828495232295523e-01
7.375719607348848461e-01
5.265572853372432194e-01
2.764235372579939565e-01
2.554304250024230782e-04
-2.888623212339245239e-01
-5.778450037910061177e-01
-8.536079033184078568e-01
-1.103066305888287468e+00
-1.314582347274235508e+00
-1.487462254967063746e+00
-1.626015639688731085e+00
-1.734568410552953521e+00
-1.817443239277152678e+00
-1.878962794929389002e+00
-1.923449746577774899e+00
-1.955226763290498049e+00
-1.978616514135542959e+00
-1.997941668181063335e+00
-2.017121249205164890e+00
-2.036930716821896858e+00
-2.056671279487073623e+00
-2.075635671902444912e+00
-2.093116628769531307e+00
-2.108406884790110514e+00
-2.120799174665913167e+00
-2.129586233098463399e+00
-2.134060794789533588e+00
-2.133515594440801966e+00
-2.127352771439757095e+00
-2.115851887294041500e+00
-2.099714423720609791e+00
-2.079644550011330306e+00
-2.056346435458171307e+00
-2.030524249353062416e+00
-2.002882160988042504e+00
-1.974124339654947713e+00
-1.944954954645750966e+00
-1.916078181065607122e+00
-1.888177855370498648e+00
-1.861413652226416637e+00
-1.835614984268163941e+00
-1.810608540760937579e+00
-1.786221010969941236e+00
-1.762279084160338627e+00
-1.738609449597358081e+00
-1.715038796546180855e+00
-1.691393814271980212e+00
-1.667501192039970270e+00
-1.643163125894391285e+00
-1.617973368454950212e+00
-1.591420322035266288e+00
-1.562991575557910462e+00
-1.532174717945512521e+00
-1.498457338120727567e+00
-1.461327025006139646e+00
-1.420271367524384099e+00
-1.374777954598082719e+00
-1.324334375149865295e+00
-1.268665013046764267e+00
-1.209570804674280131e+00
-1.149928521495299449e+00
-1.092624025984904268e+00
-1.040543180618113350e+00
-9.965718478701004468e-01
-9.635958902158853201e-01
-9.445010383244840657e-01
-9.421420929328326865e-01
-9.593033180114856062e-01
-9.981291297622124636e-01
-1.055069074590213596e+00
-1.123548539785404810e+00
-1.196965042704845716e+00
-1.268716100705648886e+00
-1.332199231144861606e+00
-1.380811951379553593e+00
-1.407951778766842521e+00
-1.407016230663720613e+00
-1.371402824427285339e+00
-1.295553675190707299e+00
-1.183644768295195382e+00
-1.045149802022059760e+00
-8.895937921464109888e-01
-7.264947401573353947e-01
-5.653688939724224038e-01
-4.157325015093235043e-01
-2.871018106856523810e-01
-1.889930694189690952e-01
-1.309225256269908599e-01
-1.213155496949167578e-01
-1.581151355703990236e-01
-2.334175912291547861e-01
-3.392557513411019743e-01
-4.676624505761659556e-01
-6.106695412440391602e-01
-7.602526009343948399e-01
-9.083014812750738187e-01
-1.046698832172501259e+00
-1.167327303533169935e+00
-1.262591891035503844e+00
-1.330074913657989022e+00
-1.370317852348438947e+00
-1.383896903820085456e+00
-1.371388264786146394e+00
-1.333368131959840275e+00
-1.270412702054384724e+00
-1.183098171783019570e+00
-1.072000737858950004e+00
-9.376965969953116042e-01
-7.812382229738491501e-01
-6.085487921872951844e-01
-4.284040489865162948e-01
-2.496158053588181658e-01
-8.099587329150423343e-02
6.864393522814768445e-02
1.904918082128272128e-01
2.757359336752256973e-01
3.155644996280699277e-01
3.011656940840445329e-01
2.249562248222416738e-01
9.232200984946140054e-02
-8.356800731720478992e-02
-2.894409975149263015e-01
-5.120711025490773949e-01
-7.382809965818365461e-01
-9.548955902108776650e-01
-1.148739794033834638e+00
-1.306638518648378211e+00
-1.415416674652168583e+00
-1.462918957075569404e+00
-1.448102135087906861e+00
-1.376754364574677814e+00
-1.254763404264204851e+00
-1.088017012884836543e+00
-8.824029491649094670e-01
-6.438089718327442146e-01
-3.781228396166882444e-01
-9.123231124506910039e-02
2.109748545537665498e-01
5.222424294697902702e-01
8.321677999378759294e-01
1.127736946563917986e+00
1.395895100166342440e+00
1.623587491563416751e+00
1.797759351573386510e+00
1.905355911014519288e+00
1.933322400705075106e+00
1.868604051463301996e+00
1.698146094107469750e+00
1.410914106803244694e+00
1.019359391821053951e+00
5.510752240104686006e-01
3.389996103222417401e-02
-5.043281938127507358e-01
-1.035771037223251589e+00
-1.532590365898093054e+00
-1.966947976536065568e+00
-2.311005665835993650e+00
-2.536925230496673844e+00
-2.619388095468242472e+00
-2.563345111912231911e+00
-2.393750816147318439e+00
-2.135915145519275526e+00
-1.815148037374300527e+00
-1.456759429058216426e+00
-1.086059257916919485e+00
-7.283574612963477080e-01
-4.089639765424115669e-01
-1.531887410010404904e-01
1.542436070707755083e-02
9.526465881444243222e-02
9.956787528561300560e-02
4.185040467179004797e-02
-6.437135847594160909e-02
-2.055810196062418105e-01
-3.682621841679931118e-01
-5.388984576099966617e-01
-7.039734453810917447e-01
-8.499676134914997405e-01
-9.641065405916644515e-01
-1.043489419948833374e+00
-1.092068547679069246e+00
-1.113933844505714754e+00
-1.113175649322514893e+00
-1.093885973705087222e+00
-1.060157247399502678e+00
-1.016081900151848849e+00
-9.657523617081724687e-01
-9.132610618145713399e-01
-8.625119719581170186e-01
-8.149048539066647834e-01
-7.700614102593374977e-01
-7.275654755929066297e-01
-6.870008844841845042e-01
-6.479514715099166100e-01
-6.100010712469389196e-01
-5.727335182720036943e-01
-5.357326471619120456e-01
-4.985822924934328881e-01
-4.609116517071905617e-01
-4.229737949098761329e-01
-3.854754394881889090e-01
-3.491335334278090619e-01
-3.146650247144169299e-01
-2.827868613337358727e-01
-2.542159912714216374e-01
-2.296706520556866804e-01
-2.098754415454526512e-01
-1.955569151380842918e-01
-1.874015552299861109e-01
-1.855251843257197664e-01
-1.896186852118909305e-01
-1.993628077145246369e-01
-2.144383016595922120e-01
-2.345259168730830790e-01
-2.593064031810312642e-01
-2.884605104093631023e-01
-3.216689883841197806e-01
-3.586125869312658532e-01
-3.989172133502684736e-01
-4.413997663938368787e-01
-4.842602474888360042e-01
-5.256831252147013966e-01
-5.638528681509040741e-01
-5.969539448768670376e-01
-6.231708239720759046e-01
-6.406879740159759917e-01
-6.476898635879718702e-01
-6.423609612675655889e-01
-6.230341467937799971e-01
-5.903112149544001985e-01
-5.465655839100869162e-01
-4.942177123609587941e-01
-4.356880594547273833e-01
-3.733982644341239387e-01
-3.097737073099243732e-01
-2.472405075730374491e-01
-1.882247847143105057e-01
-1.351526582246836139e-01
-9.033701663948605354e-02
-5.429584416534789099e-02
-2.611205577230552716e-02
-4.828433710110148665e-03
1.051223977141881906e-02
2.086718242252501992e-02
2.719361199340283516e-02
3.044874623428249841e-02
3.158980289535338187e-02
3.157399972685657336e-02
3.133075360750126048e-02
3.133231295484282392e-02
3.167666688030216365e-02
3.245079386797336540e-02
3.374167240199400786e-02
3.563628096644291809e-02
3.822159804546000628e-02
4.158460212313704052e-02
4.581227168359897767e-02
5.099158521094116631e-02
5.722376822705173283e-02
6.485321662052047353e-02
7.442816018924054700e-02
8.650436292900894053e-02
1.016401500131993568e-01
1.203941655462524990e-01
1.433250536325497981e-01
1.709914583765368146e-01
2.039520238825953957e-01
2.427653942551652455e-01
2.879024148088308310e-01
3.382776821304564474e-01
3.914702129176673706e-01
4.450156825912051639e-01
4.964497665718390906e-01
5.433081402803155990e-01
5.831264791374033418e-01
6.134404585638452145e-01
6.317857539804233591e-01
6.356980408078661826e-01
6.228820108834851599e-01
5.941552914257974827e-01
5.530707376749668391e-01
5.032742833758511170e-01
4.484118622732577997e-01
3.921297214089012328e-01
3.380753610118642505e-01
2.898965946081036860e-01
2.512412357235538352e-01
2.257570978841872689e-01
2.169361197326049318e-01
2.252852131753673437e-01
2.486258331248144549e-01
2.846836832335070677e-01
3.311844671539732055e-01
3.858538885387511885e-01
4.464176510403959908e-01
5.106014583114352190e-01
5.761310140044164640e-01
6.407320217718732724e-01
7.021610131617046502e-01
7.587886615794464662e-01
8.095512738229633243e-01
8.534062622982082624e-01
8.893110394112627715e-01
9.162230175681499444e-01
9.330996091748999799e-01
9.388982266375639485e-01
9.325762823621490671e-01
9.130911887547079608e-01
8.795205883035603911e-01
8.334355340306298654e-01
7.787581910589604917e-01
7.195024640968616936e-01
6.596822578527098413e-01
6.033114770348197986e-01
5.544040263514969924e-01
5.169738105110781579e-01
4.950347278658434602e-01
4.926005439797052632e-01
5.134919783926609194e-01
5.573619476171268738e-01
6.198399438695154640e-01
6.963914250943701312e-01
7.824821968829970276e-01
8.735803514143637427e-01
9.651549046756970895e-01
1.052674875236792262e+00
1.131609281667468991e+00
1.197427142537548672e+00
1.245726230023047165e+00
1.275003940388094170e+00
1.286623420061832057e+00
1.282069794001782226e+00
1.262828187165438543e+00
1.230383724510331955e+00
1.186221530993963880e+00
1.131826731573855715e+00
1.068684451207502439e+00
9.982798148524265613e-01
9.221011122940742100e-01
8.417109874383732482e-01
7.587473171970603447e-01
6.748513190944683826e-01
5.916642106549494518e-01
5.108272094027933585e-01
4.339815420346181951e-01
3.627685411580894304e-01
2.988296073725522639e-01
2.438061423954513418e-01
1.993505946466969381e-01
1.673863655034732445e-01
1.501175319895082516e-01
1.497611631264984533e-01
1.685343279361422586e-01
2.086540954401739922e-01
2.723375346602370795e-01
3.618017146180519950e-01
4.792637043353184523e-01
6.269405728337327233e-01
8.068253544680803468e-01
1.015169498705012607e+00
1.242135367114135969e+00
1.477591710754835752e+00
1.711407280686488175e+00
1.933450827968478114e+00
2.133591103660293253e+00
2.301696858821078884e+00
2.427636844510340008e+00
2.501279811787457064e+00
2.512843710896272675e+00
2.461905081384186733e+00
2.358201640512788799e+00
2.211981163145704254e+00
2.033491418736000700e+00
1.832980138760393674e+00
1.620695038430746138e+00
1.406883832896953734e+00
1.201794237309284252e+00
1.015673966817629337e+00
8.585730658609713739e-01
7.349968208831040295e-01
6.432869178318295633e-01
5.814631689141841475e-01
5.475453863372091723e-01
5.395533823079432523e-01
5.555062948563190828e-01
5.934205653038937545e-01
6.513119607950395018e-01
7.271962484741997246e-01
8.190391636314753310e-01
9.233361930782759686e-01
1.034909548684265435e+00
1.148490592076540695e+00
1.258810684882178288e+00
1.360601188728268518e+00
1.448593465241898581e+00
1.517518876050147902e+00
1.562108782780124772e+00
1.577094547058857765e+00
1.557373278929006677e+00
1.502949696391486789e+00
1.419780023607833508e+00
1.314156262212727189e+00
1.192370417146181971e+00
1.060714493348324794e+00
9.254804957592985826e-01
7.929604293192474840e-01
6.694462989682979925e-01
5.612301096465504013e-01
4.744861549229156816e-01
4.115811276036677735e-01
3.703391421149934137e-01
3.483181690818192289e-01
3.430761791290503071e-01
3.521711428816275413e-01
3.731610309644523560e-01
4.036038140024656995e-01
4.410574626205782112e-01
4.830799474436990870e-01
5.272424443789961446e-01
5.715649865711774913e-01
6.146158991359750301e-01
6.549968493723905549e-01
6.913095045794258597e-01
7.221555320560809621e-01
7.461365991013646504e-01
7.618543730142605108e-01
7.679105210937932080e-01
7.629067106362790174e-01
7.454860511519301181e-01
7.157736332805092472e-01
6.757481349053623410e-01
6.275051669435864898e-01
5.731403403122345974e-01
5.147492659283853245e-01
4.544275547091095602e-01
3.942708175714850216e-01
3.363746654325640573e-01
2.828347092094457005e-01
2.357261648650250674e-01
1.963561411527774136e-01
1.650480332259114113e-01
1.420608909125942176e-01
1.276537640410603525e-01
1.220857024394874230e-01
1.256157559361107956e-01
1.385029743591159879e-01
1.610064075367162173e-01
1.933851052971176376e-01
2.358639176993969078e-01
2.873094283117119119e-01
3.448069693436904837e-01
4.053211223337312985e-01
4.658164688203595971e-01
5.232575903420680907e-01
5.746090684373220681e-01
6.168354847273859187e-01
6.469014300024168440e-01
6.617715124235122870e-01
6.584797147112606552e-01
6.369692564839684046e-01
6.010902287196039362e-01
5.549670752543210961e-01
5.027242399241934612e-01
4.484861665653324669e-01
3.963772990138521579e-01
3.505220811058316066e-01
3.150449566774085053e-01
2.940703695646547100e-01
2.916432459887482453e-01
3.082825260919879184e-01
3.396580823977065067e-01
3.810872033107334245e-01
4.278871772358303627e-01
4.753752925778050309e-01
5.188688377414697461e-01
5.536851011316261673e-01
5.751413711530788397e-01
5.785549362106372495e-01
5.593223942846227148e-01
5.165642536416077402e-01
4.546457593356222349e-01
3.783268573741416785e-01
2.923674937645850402e-01
2.015276133638905509e-01
1.105671180156543171e-01
2.424522625698176392e-02
-5.268136056615172619e-02
-1.154565695123559305e-01
-1.593819052136677683e-01
-1.826260114464922923e-01
-1.874931527557254785e-01
-1.766095881689219438e-01
-1.526015767135542323e-01
-1.180953774171945303e-01
-7.571724930734730075e-02
-2.809345141152590902e-02
2.214975724273352681e-02
7.238611762791709314e-02
1.200260314621632851e-01
1.644190987224148082e-01
2.077797806139140835e-01
2.525532156964843122e-01
3.011845425299184420e-01
3.561188996740974333e-01
4.198014256887518392e-01
4.946772591337373903e-01
5.831915385688666298e-01
6.877894025539573741e-01
8.108515985854980457e-01
9.511346343317521601e-01
1.101910844960265923e+00
1.255996073743595121e+00
1.406206359649700754e+00
1.545357911466793244e+00
1.666266943619360896e+00
1.761749670531631118e+00
1.824622306628105095e+00
1.847701066333157449e+00
1.823902368842486466e+00
1.752154919629040908e+00
1.640706467895521659e+00
1.498606401014949130e+00
1.334904106360335296e+00
1.158648971304697239e+00
9.788903832209445710e-01
8.046777294823053150e-01
6.450603022569169065e-01
5.090866320073339502e-01
4.057154147998110472e-01
3.381718294305231520e-01
3.005773904413749920e-01
2.862446129317745003e-01
2.884860120011624174e-01
3.006141027489421247e-01
3.159414002745459804e-01
3.277804196773942969e-01
3.294436760568962286e-01
3.142436845124679246e-01
2.755600870494996357e-01
2.113764270934992140e-01
1.271643399834418708e-01
2.908224596473521842e-02
-7.671144100700122426e-02
-1.840583069761328461e-01
-2.867999379870469490e-01
-3.787779200841086547e-01
-4.538338393117397063e-01
-5.058092817142236797e-01
-5.286015261016741018e-01
-5.202049041011357344e-01
-4.854414956384652813e-01
-4.297802762581078295e-01
-3.586902215045196241e-01
-2.776403069221640152e-01
-1.920995080554809553e-01
-1.075368004489346968e-01
-2.942115964697242236e-02
3.677843880598483106e-02
8.562035495060739410e-02
1.138249040366646203e-01
1.218038964988648193e-01
1.103301121524402489e-01
8.017633081266070660e-02
3.211533229477862156e-02
-3.308010358596961270e-02
-1.146371970143149760e-01
-2.117831681750080020e-01
-3.237446935945865745e-01
-4.497140124493965718e-01
-5.862393905499398983e-01
-7.252455590709853128e-01
-8.581907760595042234e-01
-9.765332995625122248e-01
-1.071731387626981391e+00
-1.135243298299896786e+00
-1.158527289628272117e+00
-1.133041619659066690e+00
-1.050244546439299098e+00
-9.016890056315870483e-01
-6.876489264095592135e-01
-4.240338881812131810e-01
-1.283806375954001100e-01
1.817740786990450774e-01
4.888935140532360002e-01
7.754409218183536678e-01
1.023879555345507342e+00
1.216676297680856944e+00
1.336312550650509356e+00
1.365388274008294101e+00
1.297975908488042673e+00
1.149227111852866523e+00
9.365556742714554739e-01
6.773753859125426491e-01
3.891000369448122109e-01
8.914341753698012960e-02
-2.050717226486871436e-01
-4.760864952380231552e-01
-7.064329013644912170e-01
-8.787269375183118791e-01
-9.846989143643575249e-01
-1.033242535938077911e+00
-1.035150409549821848e+00
-1.001215142509809919e+00
-9.422293421282713632e-01
-8.689856157154773886e-01
-7.922765705816662285e-01
-7.228948140370504705e-01
-6.716329533919199735e-01
-6.492337392028262322e-01
-6.605398480912261228e-01
-6.990057674959353484e-01
-7.567873585987612284e-01
-8.260404825816399788e-01
-8.989210006264035657e-01
-9.675847739148960569e-01
-1.024187663629041234e+00
-1.060885530950661071e+00
-1.069834237061646265e+00
-1.043230279406611505e+00
-9.785333597200680522e-01
-8.836168212938586564e-01
-7.675776661845493676e-01
-6.395128943438354030e-01
-5.085184747644996284e-01
-3.836876866067002179e-01
-2.741133758554591959e-01
-1.888883884957157089e-01
-1.371055705125005519e-01
-1.278159770757291147e-01
-1.641238679358523189e-01
-2.370712412694269133e-01
-3.362398776655826094e-01
-4.512115577131968758e-01
-5.715680620013673385e-01
-6.868911711191966196e-01
-7.867626656556696574e-01
-8.607643261998303430e-01
-8.984779333407872937e-01
-8.895247030181121506e-01
-8.297167746807985189e-01
-7.277408861274023977e-01
-5.938890930029840920e-01
-4.384534509524786738e-01
-2.717260156211926958e-01
-1.039988426541209598e-01
5.443601230375971767e-02
1.932864936072120621e-01
3.022605456112370526e-01
3.710991001801833278e-01
3.952822070858510450e-01
3.825264552401359541e-01
3.420330733496683706e-01
2.828532898158986342e-01
2.140234174317265925e-01
1.445797689902668104e-01
8.355865728415157179e-02
3.999639510636177064e-02
2.292929524984188561e-02
4.137067201528621396e-02
9.987773113083164844e-02
1.932640620067171966e-01
3.150551116726574286e-01
4.587763271580125313e-01
6.179531554925108416e-01
7.861110437057883260e-01
9.567754388272295962e-01
1.123471787886533679e+00
1.279725537913396050e+00
1.419075686953930937e+00
1.538001077015604956e+00
1.639572956859256525e+00
1.727759743420668848e+00
1.806529853635939986e+00
1.879851704441136917e+00
1.951693712772021083e+00
2.026024295564738065e+00
2.106811869755333966e+00
2.198024852279601760e+00
2.303620157810453595e+00
2.425042807640874098e+00
2.558009738862676574e+00
2.697439799424658613e+00
2.838251837275614697e+00
2.975364700364078629e+00
3.103697236638842227e+00
3.218168294048618705e+00
3.313696720542172347e+00
3.385195461542807038e+00
3.427565798111817053e+00
3.439012214314505211e+00
3.425545919678121720e+00
3.394303369021401728e+00
3.352421017163074168e+00
3.307035318921687228e+00
3.265282729115984495e+00
3.234299702564662038e+00
3.221222694086275595e+00
3.233188158499631815e+00
3.277318938657193481e+00
3.356432288875190295e+00
3.462925284075645038e+00
3.587649660980721578e+00
3.721457156312624637e+00
3.855199506793531405e+00
3.979728449145595981e+00
4.085895720091065719e+00
4.164571610558796877e+00
4.206917974343245881e+00
4.204340386130533957e+00
4.152593138758854607e+00
4.058212351862978018e+00
3.929379071036204429e+00
3.774274341872049021e+00
3.601079209963865324e+00
3.417974720904934482e+00
3.233141920288809867e+00
3.054761853708827246e+00
2.891015566758209587e+00
2.750074086495718717e+00
2.635872025092911297e+00
2.541550998277581463e+00
2.458558904125825340e+00
2.378343640713318941e+00
2.292353106115714745e+00
2.192035198409145735e+00
2.068837815669246627e+00
1.914208855971726297e+00
1.719596217392669768e+00
1.476459061728836897e+00
1.181844409699382759e+00
8.474077480068809010e-01
4.871618796971692866e-01
1.151193770678777817e-01
-2.547071902314219649e-01
-6.082902954825342157e-01
-9.314656785624202406e-01
-1.209995799123845028e+00
-1.429642419863749847e+00
-1.576179662366642642e+00
-1.642657374854645580e+00
-1.641646219270201046e+00
-1.588956665819294845e+00
-1.500399184707836397e+00
-1.391784246141260173e+00
-1.278922320325537987e+00
-1.177623877466566826e+00
-1.103699387769814688e+00
-1.072959321441185665e+00
-1.101205805734160048e+00
-1.198335990935371242e+00
-1.357986114337646821e+00
-1.571017490690294061e+00
-1.828291434742219446e+00
-2.120669261242730919e+00
-2.439012284941192377e+00
-2.774181820586488989e+00
-3.117039182927968000e+00
-3.458445686714954448e+00
-3.789262959847552459e+00
-4.100623139820942065e+00
-4.384423006186789706e+00
-4.632693492061740415e+00
-4.837547956433188467e+00
-4.991569384307786628e+00
-5.087506841052150008e+00
-5.118109583737783908e+00
-5.076126869436349054e+00
-4.954307955219503512e+00
-4.745408133208621315e+00
-4.448657643890314262e+00
-4.082075723770220321e+00
-3.667070384121865700e+00
-3.225049636218249471e+00
-2.777421491332543013e+00
-2.345593960737883066e+00
-1.950975055707452332e+00
-1.614972787514389108e+00
-1.358995167431884754e+00
-1.204443503622197209e+00
-1.163601040262199682e+00
-1.221586395160871419e+00
-1.358482039693712728e+00
-1.554370445235789600e+00
-1.789334083162709588e+00
-2.043455424849831559e+00
-2.296816941672451318e+00
-2.529501105006125794e+00
-2.721590386226157676e+00
-2.853164681346683551e+00
-2.910270589514551087e+00
-2.897309543855123515e+00
-2.822305576462702525e+00
-2.693312531577135793e+00
-2.518384253438579634e+00
-2.305574586286914140e+00
-2.062937374362000309e+00
-1.798526461904000229e+00
-1.520395693152779337e+00
-1.236598503931732651e+00
-9.542218654654323062e-01
-6.773169289579843433e-01
-4.093403122665341121e-01
-1.537486332485262230e-01
8.600149023895944933e-02
3.064534403386525718e-01
5.041505991931859443e-01
6.756363489454051408e-01
8.174540717381751920e-01
9.261476295136688019e-01
9.998381420225983529e-01
1.041734700234095312e+00
1.056070398996173054e+00
1.047078333157110741e+00
1.018991597565116258e+00
9.760432870683555251e-01
9.224664965150357610e-01
8.624943207533640743e-01
8.003604577565029965e-01
7.404700974168405558e-01
6.865275386296021409e-01
6.386245908192285103e-01
5.960937213534859280e-01
5.582673976002395788e-01
5.244780869273450996e-01
4.940582567025930683e-01
4.663403742938716512e-01
4.406569070690109502e-01
4.163403223958188626e-01
3.927230918211239707e-01
3.691686567828651455e-01
3.451458463012531119e-01
3.201458861121952992e-01
2.936600019515680504e-01
2.651794195552794609e-01
2.341953646592238591e-01
2.001990629992493886e-01
1.626817403113021143e-01
1.211346223312617099e-01
7.504896316759523955e-02
2.427019727878665378e-02
-3.011822961607424354e-02
-8.676253371476638776e-02
-1.443089312150493964e-01
-2.014036383146131648e-01
-2.566928712112251931e-01
-3.088227623329203864e-01
-3.564341382598915642e-01
-3.981594365395628721e-01
-4.326303673319846776e-01
-4.588084574043325148e-01
-4.768395002367588065e-01
-4.871349965813003280e-01
-4.901064471898072816e-01
-4.861653528142770297e-01
-4.757232142067629455e-01
-4.591915321190850330e-01
-4.369818073032347705e-01
-4.095055405113345870e-01
-3.771742377965334736e-01
-3.406902807646080555e-01
-3.018290111377019413e-01
-2.626131113422485175e-01
-2.250652638048586118e-01
-1.912081509521045275e-01
-1.630644552104489331e-01
-1.426568590064786202e-01
-1.320080447667572043e-01
-1.331406949177460497e-01
-1.480774878025482577e-01
-1.781046043775230681e-01
-2.217171936755987227e-01
-2.767493688917848083e-01
-3.410352432212309104e-01
-4.124159025325523364e-01
-4.889146388704281865e-01
-5.687499756128017170e-01
-6.501500177363284116e-01
-7.313428702176582030e-01
-8.105566382007943771e-01
-8.862546112568524537e-01
-9.578157342702200427e-01
-1.024841761666846818e+00
-1.086934447872673681e+00
-1.143695547313689165e+00
-1.194726814415834060e+00
-1.239630003605054487e+00
-1.278006869307334981e+00
-1.309459165948621884e+00
-1.333588647954879081e+00
-1.350099825294063249e+00
-1.359108230102215487e+00
-1.360832150057369905e+00
-1.355489872837617682e+00
-1.343299686120985381e+00
-1.324479877585528875e+00
-1.299248734909267622e+00
-1.267824545770306566e+00
-1.230425597846667163e+00
-1.187270178816381083e+00
-1.138741375456969074e+00
-1.085899530869592011e+00
-1.029974490815747101e+00
-9.721348023625699941e-01
-9.135043860880498467e-01
-8.552061533059339693e-01
-7.983630153300699250e-01
-7.440978834742155712e-01
-6.935336690521254344e-01
-6.477932833776349764e-01
-6.077441295616485828e-01
-5.731748015035401655e-01
-5.435892169734316548e-01
-5.184912921629395433e-01
-4.973849432637176271e-01
-4.797740864674748806e-01
-4.651626379658304611e-01
-4.530545139504421615e-01
-4.429536306130120726e-01
-4.343639041451683447e-01
-4.267886951139687191e-01
-4.197289537955196104e-01
-4.126849770449125265e-01
-4.051570617053465995e-01
-3.966455046199653944e-01
-3.866506026319883049e-01
-3.746726525845956446e-01
-3.602119513209356971e-01
-3.427687956842326855e-01
-3.218434825176311187e-01
-2.969485678743309931e-01
-2.676089190439092103e-01
-2.333332610168469268e-01
-1.936300106858617198e-01
-1.480075849436541802e-01
-9.597434827197415252e-02
-3.703802478080414629e-02
2.929408982413184148e-02
1.035147076951650758e-01
1.861165409846263219e-01
2.773584335502300435e-01
3.764282311165754735e-01
4.822073795349168801e-01
5.935773001115973724e-01
7.094194141526986019e-01
8.286151429645289834e-01
9.500459078533343149e-01
1.072593130125321537e+00
1.195138231086759095e+00
1.316562632043852155e+00
1.435396204408096121e+00
1.548514604123554017e+00
1.652307368449437375e+00
1.743163969049788431e+00
1.817473877588423381e+00
1.871626565729309855e+00
1.902011505136443015e+00
1.905018167473722990e+00
1.877023239703419444e+00
1.814337633136778871e+00
1.714908349568063928e+00
1.584695163895201819e+00
1.432076395033059724e+00
1.265430867214632382e+00
1.093137404672858581e+00
9.235748316409548853e-01
7.651219723518620786e-01
6.261576510385737926e-01
5.150606919341100820e-01
4.402099192715119846e-01
4.078999640452073416e-01
4.140697199058325784e-01
4.514478289353007767e-01
5.127619566614528557e-01
5.907397686121872438e-01
6.781089303154084202e-01
7.675971072988864163e-01
8.519319650905592400e-01
9.238411692182870727e-01
9.760523852099250997e-01
1.002739554092717089e+00
1.005461622525364307e+00
9.881285811876925340e-01
9.546514142827557947e-01
9.089411060136066700e-01
8.549086397478810051e-01
7.964611747578488332e-01
7.374932385127762613e-01
6.818967539133731215e-01
6.335636438603001741e-01
5.957889953808473971e-01
5.687378976562271760e-01
5.515600874373310925e-01
5.434068636024148580e-01
5.434295250297090929e-01
5.507793705974468601e-01
5.646076991838793191e-01
5.840658096672339816e-01
6.083050009257658930e-01
6.364765718377077830e-01
6.677652224282235593e-01
7.015358162044414980e-01
7.372136902516271961e-01
7.742242261119615110e-01
8.119928053276646018e-01
8.499448094409202126e-01
8.875056199939352908e-01
9.241006185289145636e-01
9.591551865880280081e-01
9.920947057134937852e-01
1.022406578405169908e+00
1.049922081160651555e+00
1.074590994221819917e+00
1.096363270395069422e+00
1.115200260683788747e+00
1.131087928483012206e+00
1.144015444138866577e+00
1.153971977997498399e+00
1.160946700405029564e+00
1.164928781707589289e+00
1.166076185394203213e+00
1.165508954010396447e+00
1.164687487545379430e+00
1.165072579997786129e+00
1.168125025366253844e+00
1.175305617649430312e+00
1.188075150845953942e+00
1.207894418954458482e+00
1.236224215973612095e+00
1.274525335902018330e+00
1.323611643814021299e+00
1.380506032319986920e+00
1.440854742849155379e+00
1.500302071804500814e+00
1.554492315588985374e+00
1.599069770605575869e+00
1.629678733257239331e+00
1.641963499946943683e+00
1.631568367077655735e+00
1.594137631052311432e+00
1.526920001206377497e+00
1.436831180332757585e+00
1.334386220588392513e+00
1.230100906860524645e+00
1.134490602941718773e+00
1.058070672624533470e+00
1.011356479701534195e+00
1.004863387965281518e+00
1.049106761208337346e+00
1.154601963223344852e+00
1.328898445546971896e+00
1.561168796463717312e+00
1.833556322161133068e+00
2.128190159558262629e+00
2.427199445574133030e+00
2.712713317127781742e+00
2.966860911138244905e+00
3.171771364524553771e+00
3.309573814205744480e+00
3.362397397100853169e+00
3.316143830633011103e+00
3.180755113032721404e+00
2.975609417555949321e+00
2.720107232706747702e+00
2.433649046989170284e+00
2.135635348907262365e+00
1.845466626965082790e+00
1.582543369666673083e+00
1.366266065516091865e+00
1.216035080087731757e+00
1.147910340026180753e+00
1.156071793276700621e+00
1.225888328771695068e+00
1.342704635396224200e+00
1.491865402035378096e+00
1.658715317574232628e+00
1.828599070897870993e+00
1.986861350891382383e+00
2.118846846439838671e+00
2.209900246428327275e+00
2.247341038306270633e+00
2.231804730126740299e+00
2.169428971843577525e+00
2.066368808238113086e+00
1.928779284091602042e+00
1.762815444185322766e+00
1.574632333300535425e+00
1.370384996218517504e+00
1.156228477720545822e+00
9.383178225878797685e-01
7.227909957375762140e-01
5.156674654246415912e-01
3.229165771129269835e-01
1.505079166785583678e-01
4.411175430794160579e-03
-1.094039553209866927e-01
-1.849677842673992934e-01
-2.163104274504351887e-01
-1.974596603512037696e-01
-1.224416990165620167e-01
1.289387966083308142e-02
1.996796483279189294e-01
4.233881095829595820e-01
6.694686022289081384e-01
9.233704650682706960e-01
1.170543036903973322e+00
1.396435656538825620e+00
1.586497662775613327e+00
1.726178394417140050e+00
1.800927190266210509e+00
1.798584968236363713e+00
1.724566009537331412e+00
1.592121330564246096e+00
1.414538070625951383e+00
1.205103369031199856e+00
9.771043650890685051e-01
7.438281981083179062e-01
5.185620073978129962e-01
3.145929322663981731e-01
1.452081120229390121e-01
2.202982396660364134e-02
-5.591280958983152471e-02
-9.534997212557963508e-02
-1.030415715635472906e-01
-8.574751582659653759e-02
-5.022777211073137238e-02
-3.242742556174447923e-03
4.844697696812749060e-02
9.808078970514240436e-02
1.388980988978150699e-01
1.650154254182417124e-01
1.773802271377641349e-01
1.801434965970365176e-01
1.774746397290676847e-01
1.735430624668416466e-01
1.725181707433748046e-01
1.785693704916663238e-01
1.958660676447056548e-01
2.285776681355080608e-01
2.808735458293524223e-01
3.561188247168796672e-01
4.512321557942679529e-01
5.600324939005901781e-01
6.763190492940756027e-01
7.938910322329565394e-01
9.065476529754389334e-01
1.008088121779821211e+00
1.092311648904180421e+00
1.153017444606815323e+00
1.184004719145955953e+00
1.179953963400154127e+00
1.142825567801188047e+00
1.078168973892961624e+00
9.915588065599061363e-01
8.885695114580912657e-01
7.747754821842968154e-01
