ECG
2.698954040855717773e-01
3.066310080936245352e-01
4.135079112758586750e-01
5.855312503693868020e-01
8.177061621113194123e-01
1.105037783238770999e+00
1.442531250488854111e+00
1.825191700598680411e+00
2.247621073924542134e+00
2.701887326563417346e+00
3.179076355409760968e+00
3.670271907864983252e+00
4.166557731330497560e+00
4.659017573207716367e+00
5.138735180898049038e+00
5.596286701617813719e+00
6.017054917282650628e+00
6.383380013539730946e+00
6.677563665187479458e+00
6.881907547024323613e+00
6.978713333848683753e+00
6.950282700458983776e+00
6.779858029070755521e+00
6.467691382594933813e+00
6.028813102828538995e+00
5.478745190270664978e+00
4.833009739606977995e+00
4.107129325275304055e+00
3.316626674078479997e+00
2.477170094132347344e+00
1.609918957650904314e+00
7.430697982128684487e-01
-9.472007187224594504e-02
-8.747933402949432669e-01
-1.568492694745725613e+00
-2.147160822915081813e+00
-2.582259652225590507e+00
-2.858799393776233266e+00
-2.987642670962156632e+00
-2.982559126776310521e+00
-2.857318404211639518e+00
-2.625690146261091318e+00
-2.301443995917612728e+00
-1.898352018984483580e+00
-1.432811115919079503e+00
-9.288435207766044810e-01
-4.118483968878126067e-01
9.277509241653303373e-02
5.596277838056796794e-01
9.633105139488713498e-01
1.278424119515346957e+00
1.485122828235396319e+00
1.588685417076884043e+00
1.601492997265532958e+00
1.535927145732724819e+00
1.404369439409841602e+00
1.219201455228266395e+00
9.928047701193797314e-01
7.376370098995624902e-01
4.666996343606485409e-01
1.932309018570996517e-01
-6.952995337913832341e-02
-3.083436971161093165e-01
-5.099710951218578980e-01
-6.611729131644368262e-01
-7.498344835670088804e-01
-7.771584092607839445e-01
-7.530564683904730217e-01
-6.875909582695031164e-01
-5.908241762113023432e-01
-4.728184195292955971e-01
-3.436359855369110483e-01
-2.131910598184731942e-01
-8.818861371905027668e-02
2.776963830585076759e-02
1.312088945714059707e-01
2.186544522267568624e-01
2.866324427475132608e-01
3.316694164640769382e-01
3.503634163244629951e-01
3.427846492321958149e-01
3.139614896299530722e-01
2.693028774938645564e-01
2.142177528000600850e-01
1.541150555246705856e-01
9.440372564382450149e-02
4.048287913527495036e-02
-3.973051469818078552e-03
-3.897512135818519130e-02
-6.500880514970502899e-02
-8.255957746425669763e-02
-9.211291292171991385e-02
-9.415428614197368651e-02
-8.916922757535114541e-02
-7.787111389587697552e-02
-6.172002902920907530e-02
-4.232878716869129671e-02
-2.131020250766665208e-02
-2.770892394788997126e-04
1.915773844252845540e-02
3.538146634501171395e-02
4.708027954921182451e-02
5.446673757131943738e-02
5.823697734319259467e-02
5.908709713725396329e-02
5.771319522592587709e-02
5.481136988163097523e-02
5.107771937679168178e-02
4.716522221603550863e-02
4.337478255270701272e-02
3.983541919700609585e-02
3.667498816747540719e-02
3.402134548265749875e-02
3.200234716109490174e-02
3.074584922133025838e-02
3.036637108097103854e-02
3.079428657790438117e-02
3.182570355843924309e-02
3.325368231490558046e-02
3.487128313963326620e-02
3.647156632495228423e-02
3.784759216319259767e-02
3.879668907659834798e-02
3.922864104575585209e-02
3.917424973201977939e-02
3.867030024207754324e-02
3.775465087894573635e-02
3.648130353119130587e-02
3.491673126864247578e-02
3.312750134438478822e-02
3.116536839710645768e-02
2.905849447867777519e-02
2.683293633711462609e-02
2.451475072043280204e-02
2.212999437664835839e-02
1.970472405377713537e-02
1.726498237849366513e-02
1.483255967802378159e-02
1.241905039307432575e-02
1.003455246560343989e-02
7.689163837569211631e-03
5.392982450929964533e-03
3.156106247643785789e-03
9.886332006279942991e-04
-1.097379386376928822e-03
-3.082618855170756768e-03
-4.946093546022293716e-03
-6.666811799200461804e-03
-8.223781954974015984e-03
-9.596012353611852591e-03
-1.076251133538286969e-02
-1.170355704481196302e-02
-1.241984383844183665e-02
-1.292921068316686684e-02
-1.324989475987741090e-02
-1.340013324946389729e-02
-1.339816333281668159e-02
-1.326222219082614714e-02
-1.301047911580351275e-02
-1.266046773972382550e-02
-1.222937439440116222e-02
-1.173438188752523245e-02
-1.119267302678577172e-02
-1.062143061987249650e-02
-1.003783747447514751e-02
-9.459098655250757284e-03
-8.902780728012569395e-03
-8.386743863293457876e-03
-7.928856724819865337e-03
-7.546987976318153719e-03
-7.259006281514729202e-03
-7.082780304136011840e-03
-7.036156187288598700e-03
-7.136245435448620132e-03
-7.399279551917018090e-03
-7.841438149474123237e-03
-8.478416315863592997e-03
-9.310711308048776752e-03
-1.032095725533220196e-02
-1.149078906636609443e-02
-1.280388329450380010e-02
-1.424754825089121629e-02
-1.580946646132337999e-02
-1.747732045159532469e-02
-1.923879274750199889e-02
-2.108156587483845518e-02
-2.299331340848114261e-02
-2.495626159038688216e-02
-2.693795065745412110e-02
-2.890347079543394149e-02
-3.081791219007724153e-02
-3.264636502713506860e-02
-3.435391949235844927e-02
-3.590566577149840316e-02
-3.728011075115450490e-02
-3.851194119757910678e-02
-3.965054625909718994e-02
-4.074531513388825188e-02
-4.184563702013185255e-02
-4.300090111600753107e-02
-4.426049661969476412e-02
-4.564340007312341768e-02
-4.697813180107408837e-02
-4.802834480992056870e-02
-4.855889660564770283e-02
-4.833464649938572916e-02
-4.712045380226484448e-02
-4.468117782541522476e-02
-4.060817774428954890e-02
-3.261988447086708320e-02
-1.729143148884765974e-02
8.818382583298235711e-03
4.915075912710206718e-02
1.071468995240942579e-01
1.862480051558047245e-01
2.899016784861330187e-01
4.216791347728922057e-01
5.852633537378209017e-01
7.843413389746672904e-01
1.022600094077168453e+00
1.303726622639067356e+00
1.631407928254103412e+00
2.009183386289742135e+00
2.434495257906770682e+00
2.896651830177979114e+00
3.384395751105867767e+00
3.886469749367201576e+00
4.391624095798165150e+00
4.888622645533063249e+00
5.366217047367641158e+00
5.811356041850872067e+00
6.207400868611282263e+00
6.537288326963306417e+00
6.783955216221439599e+00
6.930338335700160002e+00
6.959374484713922726e+00
6.854004735941045645e+00
6.604200137551515581e+00
6.221286548652882331e+00
5.720629680890329638e+00
5.117595245909127399e+00
4.427548955354427385e+00
3.665856520871515478e+00
2.847883654105530127e+00
1.990865887326664252e+00
1.120895482143532851e+00
2.666843984418629243e-01
-5.430550081156311215e-01
-1.279610381866401969e+00
-1.914269367147744871e+00
-2.418319608297071266e+00
-2.766607092144082625e+00
-2.960706124530707584e+00
-3.014351870999241623e+00
-2.941343012268811563e+00
-2.755478247930476243e+00
-2.470556277575323367e+00
-2.100375800794410885e+00
-1.659258159083059070e+00
-1.168071707828919781e+00
-6.521438096850105115e-01
-1.368874594597006555e-01
3.522843480387410353e-01
7.899586180019469994e-01
1.150722355621625281e+00
1.409938345985434438e+00
1.561013585791501290e+00
1.615511815672240337e+00
1.585795062893466500e+00
1.484225354721002255e+00
1.323164718420656305e+00
1.114975181258264669e+00
8.720248495046338810e-01
6.070087975685027892e-01
3.331082981953002453e-01
6.354412906591931642e-02
-1.884629200893611078e-01
-4.096816364102991437e-01
-5.868513391006616731e-01
-7.067373344065737140e-01
-7.626944210977164573e-01
-7.627715707915129206e-01
-7.170047561411203585e-01
-6.354299497997050183e-01
-5.280831244204201580e-01
-4.050002526564382421e-01
-2.762171573894436349e-01
-1.504938972039389089e-01
-3.221582199255415557e-02
7.516866970224704569e-02
1.682111793379846842e-01
2.434633083721995661e-01
2.974766582624147615e-01
3.268028304661658723e-01
3.290826094559111681e-01
3.077984592035816203e-01
2.683829856504350020e-01
2.162701557167800437e-01
1.568939363229165107e-01
9.568829438915489594e-02
3.808719683579707416e-02
-1.089659343618784755e-02
-4.987820988685536666e-02
-7.935378183706880140e-02
-9.984248665012783464e-02
-1.118634118457595139e-01
-1.159356449436893116e-01
-1.125782734636420895e-01
-1.023520621503884315e-01
-8.642839407712687994e-02
-6.644214793574690359e-02
-4.403975232926934935e-02
-2.086763586071224003e-02
1.427772866906042507e-03
2.120004525056459060e-02
3.683961641195963865e-02
4.778610442707453138e-02
5.465407601297074536e-02
5.812021585475959928e-02
5.886120863755243265e-02
5.755373904646030048e-02
5.487449176659506267e-02
5.149738668473340109e-02
4.789550909231593545e-02
4.420869669291374593e-02
4.054539180935720633e-02
3.701403676447727331e-02
3.373204467655784022e-02
3.085771705754950661e-02
2.856077344236401805e-02
2.692491813644209975e-02
2.581846809060623846e-02
2.507657312452029816e-02
2.453438305784816018e-02
2.402704771025370237e-02
2.338971690140064993e-02
2.245754049779112929e-02
2.110758029725637308e-02
1.937935464256622733e-02
1.735173815995913818e-02
1.510360547567377032e-02
1.271383121594852304e-02
1.026129000702187717e-02
7.824856475132315262e-03
5.479059693943835220e-03
3.271993563275080175e-03
1.241810978988691205e-03
-5.733530956719354050e-04
-2.135363697463417247e-03
-3.406085863142389262e-03
-4.347384629465374066e-03
-4.922089367214736201e-03
-5.109852735128943627e-03
-4.938258002479177511e-03
-4.450205135029159341e-03
-3.688566686720513681e-03
-2.696214580969301909e-03
-1.516020741191566107e-03
-1.905307558967139899e-04
1.243355076512584921e-03
2.753508427620266884e-03
4.307951091933034070e-03
5.874704863957546687e-03
7.421791538200431769e-03
8.917232909168362753e-03
1.032900850861468746e-02
1.162359706846240702e-02
1.276560620363889446e-02
1.371952607184482274e-02
1.444984683078064276e-02
1.492105863814703268e-02
1.509765165164444339e-02
1.494411937085263729e-02
1.442529927602831559e-02
1.350666666787046430e-02
1.215376607729103282e-02
1.033214203520197751e-02
8.014262305672969003e-03
5.224426219511434100e-03
2.010426591766880777e-03
-1.579986269118212761e-03
-5.499510274958019015e-03
-9.700921713089538309e-03
-1.413699687084977660e-02
-1.876051203557561886e-02
-2.352424349460433689e-02
-2.838096753527241320e-02
-3.328320392098212122e-02
-3.818234792897703261e-02
-4.302948680363851558e-02
-4.777570778135678542e-02
-5.237209809852216846e-02
-5.676974499152441511e-02
-6.091973569675385169e-02
-6.477371688003154271e-02
-6.828720460248116630e-02
-7.141735062440113246e-02
-7.412131252992919250e-02
-7.635624790320336142e-02
-7.807931432836133501e-02
-7.924766938954103113e-02
-7.981732765871661639e-02
-7.973687426604375572e-02
-7.900137293486871048e-02
-7.763729029248778168e-02
-7.567226037522933879e-02
-7.313397871793211880e-02
-7.005014085543505298e-02
-6.645045633342396008e-02
-6.240624647400053876e-02
-5.802798438459043362e-02
-5.342766461246088727e-02
-4.871728170487941295e-02
-4.400883020911326715e-02
-3.941430467242947738e-02
-3.504294247062911954e-02
-3.087880816068068815e-02
-2.673211581639847040e-02
-2.240025627537993447e-02
-1.768062037522227445e-02
-1.237059895352275903e-02
-6.267582847878773976e-03
8.371993505526410112e-04
1.011237280752460416e-02
2.471877267851009877e-02
4.806506881857334351e-02
8.355993108277663672e-02
1.346150454578187716e-01
2.046814515088163922e-01
2.972377953045529098e-01
4.158144255966040315e-01
5.641041502965875587e-01
7.458319682921401572e-01
9.647228784708651306e-01
1.224501879720390818e+00
1.528893970928353996e+00
1.881624150982347699e+00
2.284423642840981206e+00
2.729134426995087015e+00
3.204538057038401444e+00
3.699415176267335070e+00
4.202546427978230525e+00
4.702712455467524144e+00
5.188693902031550564e+00
5.648810796753448216e+00
6.067749033693880634e+00
6.428471151667262795e+00
6.713929316273371306e+00
6.907075693111943693e+00
6.990862447782763667e+00
6.948241745885589182e+00
6.763524156032558743e+00
6.439038844848075094e+00
5.989874060894000429e+00
5.431372320522741326e+00
4.778877223621416093e+00
4.047732738828042187e+00
3.253282834780780508e+00
2.411121138362279925e+00
1.543088430126750454e+00
6.775667952503869884e-01
-1.567531536113110358e-01
-9.311808038029211199e-01
-1.617025542668785176e+00
-2.185596757553488256e+00
-2.608466832036194560e+00
-2.872951881477588731e+00
-2.990750103709239660e+00
-2.975654662301551845e+00
-2.841458720824967088e+00
-2.601955442849914313e+00
-2.270937991946815782e+00
-1.862211775601893438e+00
-1.392753764409398132e+00
-8.869232911670029695e-01
-3.701278146623840359e-01
1.322252063167814184e-01
5.947286921418813987e-01
9.919854037704176619e-01
1.298608907609952512e+00
1.496217206447378878e+00
1.591562978728136679e+00
1.597035026108288402e+00
1.525022150243932062e+00
1.387913152791150351e+00
1.198096835406026184e+00
9.679619997446158308e-01
7.099975023459326184e-01
4.372544449302228631e-01
1.629801758478642004e-01
-9.957775283001589484e-02
-3.371717890323122080e-01
-5.365543806878473321e-01
-6.844779757255197161e-01
-7.692611142452845385e-01
-7.933747224596962022e-01
-7.668038635309420981e-01
-6.996028098324191813e-01
-6.018258337375187450e-01
-4.835272076196322488e-01
-3.547612038521502642e-01
-2.253565048593848819e-01
-1.016302289228331740e-01
1.287066535482265031e-02
1.146687330588009174e-01
2.002846537022431039e-01
2.662382666700962019e-01
3.090494014660543631e-01
3.253651774794214524e-01
3.157566419877839148e-01
2.853679162439883843e-01
2.396011952144989077e-01
1.838586738657713437e-01
1.235425471642634387e-01
6.405501007643285560e-02
1.077363248726788576e-02
-3.294749701344238529e-02
-6.725291677846359506e-02
-9.263484080258639619e-02
-1.095854830806015645e-01
-1.185970576073002297e-01
-1.201617783774712594e-01
-1.147724197992420758e-01
-1.032007832959163651e-01
-8.694855303754839282e-02
-6.763528410222574561e-02
-4.688053156803144439e-02
-2.630379934778178178e-02
-7.521056895882869547e-03
7.857489994517618051e-03
1.860384163590591763e-02
2.503868787985470343e-02
2.787546688453452354e-02
2.782761685004369462e-02
2.560857597648030087e-02
2.193178246394326611e-02
1.751067451253086188e-02
1.300123969313783136e-02
8.692995629050645143e-03
4.731480557900498082e-03
1.261890317506006182e-03
-1.570579254315778404e-03
-3.620732319747251449e-03
-4.743373040970720253e-03
-4.812265451946894437e-03
-3.898416625383936511e-03
-2.189886565234532186e-03
1.237248691523798114e-04
2.852817818427790496e-03
5.807792423242369093e-03
8.799048824247132639e-03
1.164371211844170140e-02
1.428295518649357748e-02
1.675940401898368126e-02
1.910374969005739637e-02
2.134508567229309595e-02
2.351291294895058864e-02
2.563676166164778961e-02
2.774572615163924463e-02
2.985199712763722535e-02
3.194582890166937361e-02
3.401601195235866293e-02
3.605133675832800783e-02
3.804059379820037140e-02
3.997257355059870287e-02
4.183602409720933030e-02
4.361464735615958738e-02
4.528238963186739796e-02
4.681208259633915653e-02
4.817655792158133388e-02
4.934864727960035224e-02
5.030118234240264774e-02
5.100699676338336236e-02
5.144135238931862170e-02
5.158666401883676977e-02
5.142665704186696191e-02
5.094505684833829096e-02
5.012561582787881248e-02
4.896336886927910026e-02
4.748203804137231948e-02
4.570932604098862373e-02
4.367058836572124125e-02
4.139050757888821513e-02
3.889376618741500341e-02
3.620504669822715432e-02
3.334903161824990386e-02
3.035040345440916804e-02
2.723393656524058723e-02
2.402507222676767903e-02
2.074954602669698209e-02
1.743309484516529853e-02
1.410145556230961439e-02
1.078036505826674742e-02
7.495560213173695779e-03
4.272745517020319454e-03
1.137235138638521999e-03
-1.885915277653374628e-03
-4.771654707757922755e-03
-7.494932127578044639e-03
-1.003069651301607967e-02
-1.235389683997475258e-02
-1.443944515713283146e-02
-1.626143859272045911e-02
-1.780230127529498080e-02
-1.907373754452142134e-02
-2.009291174992625453e-02
-2.087558191844404373e-02
-2.143720688163051197e-02
-2.179329243448200129e-02
-2.196169804350391747e-02
-2.196368691124975236e-02
-2.182078821702253257e-02
-2.155453114012605836e-02
-2.118644485986337714e-02
-2.073805855553805325e-02
-2.023086619691559507e-02
-1.967982077357538495e-02
-1.908571084134077361e-02
-1.844747323947115714e-02
-1.776404480722595242e-02
-1.703436238386422247e-02
-1.625736280864550562e-02
-1.543198626343217361e-02
-1.457398631362826109e-02
-1.375500222721421327e-02
-1.305826985587841584e-02
-1.256702505130833855e-02
-1.236450366519190221e-02
-1.252990912117836649e-02
-1.312598817961244460e-02
-1.417135238386566659e-02
-1.547714230968084276e-02
-1.678733768312556593e-02
-1.784588399999886485e-02
-1.839672675610011868e-02
-1.818381144722822085e-02
-1.695108356918259215e-02
-1.420369807128174164e-02
-7.466261219090247758e-03
6.716366531003315626e-03
3.180630037585793768e-02
7.126565551233556006e-02
1.285565471372979163e-01
2.071410904476058412e-01
3.104909682977647911e-01
4.422124221356703577e-01
6.060110465094628029e-01
8.055947588282154070e-01
1.044671476501000784e+00
1.326949116936920525e+00
1.656135597544989402e+00
2.035684979567554009e+00
2.462201448097822709e+00
2.924824429181623220e+00
3.412311017631781684e+00
3.913416350525678933e+00
4.416893659840614106e+00
4.911495127268055150e+00
5.385941567780661465e+00
5.826853122859932732e+00
6.217461092034400671e+00
6.540689168303430279e+00
6.779461044666386549e+00
6.916700414122643359e+00
6.935330969671534618e+00
6.818302811045464651e+00
6.557109858323459051e+00
6.164010796459431063e+00
5.654358230783421924e+00
5.043504766625644287e+00
4.346803009316158040e+00
3.579605564185070588e+00
2.757265057081778270e+00
1.897501383434638145e+00
1.026926392525077336e+00
1.742393337005309073e-01
-6.318605436914828122e-01
-1.362673990303447269e+00
-1.989501227547448181e+00
-2.483638952270268874e+00
-2.821081456219359573e+00
-3.005496584634416823e+00
-3.050648607105875598e+00
-2.970316552321357939e+00
-2.778279448968503651e+00
-2.488316325734943213e+00
-2.114206211308304439e+00
-1.670461364794700643e+00
-1.178571962699947351e+00
-6.638904302631756238e-01
-1.518100913892653225e-01
3.322757300169017491e-01
7.629737100504875302e-01
1.114890524806520400e+00
1.363828706549189862e+00
1.505397284279852643e+00
1.551494082946367925e+00
1.514500800717983431e+00
1.406799135763963093e+00
1.240770786253562630e+00
1.028797450356037757e+00
7.832719004266647245e-01
5.169577419868763846e-01
2.430681546784090874e-01
-2.515851473707374913e-02
-2.744848665496266715e-01
-4.916728663148526302e-01
-6.634836360670943733e-01
-7.767611475589417669e-01
-8.261129263526609812e-01
-8.201365843283463519e-01
-7.688950106873648771e-01
-6.824510946311027615e-01
-5.708677253609297786e-01
-4.442077920782211420e-01
-3.125318438052064884e-01
-1.843310782945714044e-01
-6.380706103992284106e-02
4.556489286807015315e-02
1.403094683387255959e-01
2.169513502813611716e-01
2.720152236052993944e-01
3.020257732198466938e-01
3.049009379335307357e-01
2.844767094378412575e-01
2.461601262278086122e-01
1.953582386755321476e-01
1.374780971530997764e-01
7.792653462029211497e-02
2.210790706944555650e-02
-2.513930645530303154e-02
-6.275259918884087962e-02
-9.121890435606158642e-02
-1.110298745336087134e-01
-1.226771622981258497e-01
-1.266524202262567234e-01
-1.234473008946440215e-01
-1.136132039600816213e-01
-9.835751749870819127e-02
-7.929322467436095145e-02
-5.803931914697513239e-02
-3.621479457649217498e-02
-1.543864462284727686e-02
2.670137054022092733e-03
1.655146241737830148e-02
2.580682810986363249e-02
3.110113270648677888e-02
3.313849583544178218e-02
3.262303712492180263e-02
3.025887620311941417e-02
2.675013269822852646e-02
2.279551620452942295e-02
1.886369411664018392e-02
1.511283544897346759e-02
1.168335612012748673e-02
8.719023467725387291e-03
6.363548517501611129e-03
4.760162185034651737e-03
4.051259976859911301e-03
4.276718354701595885e-03
5.269717201769223876e-03
6.838593649436188436e-03
8.791684829076131663e-03
1.093732787206255254e-02
1.308385990976924061e-02
1.503964547577377360e-02
1.666521267866481748e-02
1.798178036982618286e-02
1.904141048720615556e-02
1.989616496875288090e-02
2.059810575241452502e-02
2.119929477613937199e-02
2.175179397787555327e-02
2.230204384484037183e-02
2.286947210738068600e-02
2.346540258243290031e-02
2.410115754495004148e-02
2.478805926988530972e-02
2.553710297810457552e-02
2.635215952443808671e-02
2.722887690874185168e-02
2.815260806550334491e-02
2.910409529933900841e-02
3.006405637960074886e-02
3.101320907564069848e-02
3.193227115681089578e-02
3.280196039246344869e-02
3.360347400225992959e-02
3.432412292659999670e-02
3.495543504204190466e-02
3.548902183586036263e-02
3.591649479533020467e-02
3.622946540772611218e-02
3.641954516032289146e-02
3.647827507596444058e-02
3.639551976061079774e-02
3.615943584209806855e-02
3.575810317089483936e-02
3.517960159746982840e-02
3.441201097229171224e-02
3.344341114582915359e-02
3.226188913061576319e-02
3.085593004137392875e-02
2.921503467722833328e-02
2.734228779750262975e-02
2.525696317909324404e-02
2.297935380365584077e-02
2.053035724178751617e-02
1.793119169207176705e-02
1.520288646631843231e-02
1.236603727284583780e-02
9.441180283571245016e-03
6.448851670410090525e-03
3.409587605279703476e-03
3.439242600953298316e-04
-2.727602164534683165e-03
-5.784132754129234742e-03
-8.803686159563967745e-03
-1.176403715797472160e-02
-1.464296052649925739e-02
-1.741823104227345487e-02
-2.006762348243517832e-02
-2.256891262412041507e-02
-2.490060588098844813e-02
-2.704519762806798650e-02
-2.898653191653392108e-02
-3.070845387127023318e-02
-3.219480861716175063e-02
-3.342972916571912423e-02
-3.441259523892999800e-02
-3.516373802425729056e-02
-3.569148499841951622e-02
-3.599703409595855080e-02
-3.608152391097830397e-02
-3.594609303758228985e-02
-3.559188006987454300e-02
-3.502002360195879266e-02
-3.423470567968411871e-02
-3.328554440728708624e-02
-3.225708205366467629e-02
-3.123475622534844717e-02
-3.030400452887115764e-02
-2.955026457076525073e-02
-2.905897395756282600e-02
-2.891073279388794992e-02
-2.904502415467806117e-02
-2.924131747994308458e-02
-2.927044666654452301e-02
-2.890324561134536424e-02
-2.791054821120707991e-02
-2.606318836299272718e-02
-2.311711405371460679e-02
-1.770532121485681246e-02
-6.573293276596191281e-03
1.372518863467022190e-02
4.665630402038421776e-02
9.568838080203420637e-02
1.642901491532521852e-01
2.559309999242673772e-01
3.741427822449248652e-01
5.226158037920415333e-01
7.050651395576988945e-01
9.252058645339682474e-01
1.186753053712919836e+00
1.493421782086654881e+00
1.848927124181114712e+00
2.254450446671272257e+00
2.701210700016141164e+00
3.177978603616559816e+00
3.673524876873416112e+00
4.176620239187446515e+00
4.676035409959539813e+00
5.160541108590532389e+00
5.618296610746692288e+00
6.033686195069006608e+00
6.389654943476502424e+00
6.669145097673438549e+00
6.855098899364032938e+00
6.930458557071071723e+00
6.878158328150754564e+00
6.683034787084743300e+00
6.349184259132702124e+00
5.891815002999749140e+00
5.326269436123617140e+00
4.667889975942224545e+00
3.932019039893317025e+00
3.133999045414691764e+00
2.289562180174605999e+00
1.421319642996620392e+00
5.577704661585420887e-01
-2.723962888845036234e-01
-1.040491560677304861e+00
-1.717826287764648852e+00
-2.275711408691374338e+00
-2.685948970227665100e+00
-2.938261812820527119e+00
-3.044996843737763026e+00
-3.019948777750081970e+00
-2.876912329628177112e+00
-2.629682214142789132e+00
-2.292053146064619629e+00
-1.877854715084976034e+00
-1.404669067399848537e+00
-8.971276389660119976e-01
-3.806326775903445814e-01
1.194330433449596884e-01
5.776902382944338887e-01
9.687587953635055094e-01
1.267265193903640563e+00
1.456489354477419118e+00
1.544435994339227403e+00
1.543496913809268234e+00
1.466063913207732439e+00
1.324528792854840376e+00
1.131283353070789088e+00
8.987193941757820603e-01
6.393572246728314035e-01
3.662886038188057913e-01
9.276407606834052855e-02
-1.679658078432574309e-01
-4.026504971806919575e-01
-5.980394412088100298e-01
-7.408820891922847096e-01
-8.200381384333359502e-01
-8.391856214387225510e-01
-8.083516247989135373e-01
-7.375874222231679767e-01
-6.369442874207856820e-01
-5.164734941794625334e-01
-3.862294608506699478e-01
-2.559518555121240713e-01
-1.315991238760851334e-01
-1.669266044014909578e-02
8.528657219162685821e-02
1.708576114151136305e-01
2.365394946261961118e-01
2.788512592207960106e-01
2.945184081566061818e-01
2.846249791434661280e-01
2.544072073642421605e-01
2.092664956776164875e-01
1.546042469422406196e-01
9.582186401680614640e-02
3.832074975995880539e-02
-1.254740456788259670e-02
-5.375747688423727216e-02
-8.555668175323913327e-02
-1.084380252774534009e-01
-1.228945135594688293e-01
-1.294191527018581089e-01
-1.285049488072012303e-01
-1.206469405296490133e-01
-1.066741929853732840e-01
-8.811828794505408013e-02
-6.660117945276985973e-02
-4.375229454861342959e-02
-2.120323108389436315e-02
-5.853094001613519740e-04
1.647270134278201736e-02
2.882025961489430299e-02
3.684382380840293958e-02
4.123883290317808398e-02
4.270072587908717993e-02
4.192494171599853159e-02
3.960691939377977006e-02
3.644209789229995583e-02
3.305126663640280127e-02
2.967956571978087876e-02
2.645423376742777125e-02
2.350246739692855857e-02
2.095146322587251864e-02
1.892841787184521354e-02
1.756052795243498790e-02
1.694901399467643385e-02
1.698693867571862692e-02
1.746733830274352015e-02
1.818261379617192031e-02
1.892516607642420745e-02
1.948739606392078938e-02
1.966605413851048659e-02
1.929369911592307418e-02
1.834719462725670561e-02
1.690023657574106844e-02
1.502864059301475992e-02
1.280822231071757945e-02
1.031479736048796121e-02
7.624181373965386276e-03
4.811450287428954004e-03
1.932734244586806075e-03
-9.759227724639744569e-04
-3.879444795080024509e-03
-6.742755854616652202e-03
-9.530779982430490765e-03
-1.220844120987665642e-02
-1.474075818766662146e-02
-1.709861290590081184e-02
-1.926208423101354386e-02
-2.121205500097663940e-02
-2.292940805376322486e-02
-2.439502622734536844e-02
-2.558979235969539509e-02
-2.649457866978098888e-02
-2.708731542982014198e-02
-2.733899220612109535e-02
-2.722410987775796681e-02
-2.675168420915016720e-02
-2.594667069478020366e-02
-2.483413276044269674e-02
-2.343988767430775499e-02
-2.179132083193900324e-02
-1.991822483729782309e-02
-1.785092707962213782e-02
-1.561975494815102256e-02
-1.325503583212385081e-02
-1.078709712077833595e-02
-8.246266203354161994e-03
-5.662749590437177356e-03
-3.066064523450550555e-03
-4.854843017110775649e-04
2.049718058752921217e-03
4.510269541915037060e-03
6.866897131747008547e-03
9.090327812222435619e-03
1.115124335805007562e-02
1.301991037126279914e-02
1.466637213043406329e-02
1.606066976349673076e-02
1.717284439838439106e-02
1.797293716302974728e-02
1.843421560958048711e-02
1.856228120255756786e-02
1.838221420651013627e-02
1.792003458858116086e-02
1.720178238986205116e-02
1.625349765144444916e-02
1.510122041441947296e-02
1.377099071987892935e-02
1.228876440499782063e-02
1.067783443788204896e-02
8.958351436757947331e-03
7.150285094968676300e-03
5.273605105858572561e-03
3.348281162770706896e-03
1.394282959049441585e-03
-5.683299648070132661e-04
-2.511813873907490970e-03
-4.394966441780912350e-03
-6.175225635038925423e-03
-7.810029420294204404e-03
-9.256815764158590407e-03
-1.047302263324465139e-02
-1.141612587358602042e-02
-1.206422038701337150e-02
-1.245008108894233093e-02
-1.261722875671944001e-02
-1.263305592689867307e-02
-1.258198876111002971e-02
-1.254882026331863645e-02
-1.261786228319678946e-02
-1.282102279739699528e-02
-1.298022838283604055e-02
-1.286345796509449566e-02
-1.223869042433063312e-02
-1.087390464070120237e-02
-8.537079494364038790e-03
-4.996193865476511106e-03
2.994690155536808632e-04
9.964066671136116021e-03
2.743356343878882234e-02
5.614604113100814947e-02
9.953958156030959237e-02
1.610522665391773134e-01
2.441221778801406228e-01
3.522010341590712246e-01
4.888848163175050776e-01
6.578562234966125466e-01
8.627991397210400537e-01
1.107397449015584678e+00
1.395335035404922541e+00
1.730296357918578831e+00
2.115574808515172212e+00
2.546906274944288562e+00
3.013286851801299182e+00
3.503476975149505179e+00
4.006237081052188564e+00
4.510327605572938658e+00
5.004508984774939329e+00
5.477481506649335863e+00
5.915545463423182326e+00
6.301847272917977527e+00
6.619318893500639511e+00
6.850892283537844740e+00
6.979499401396336289e+00
6.988072205442934504e+00
6.859624003370562662e+00
6.587320693637416902e+00
6.184214614714658609e+00
5.665666637299912267e+00
5.047037632090475512e+00
4.343688469784104278e+00
3.570980021078019373e+00
2.744275262416120409e+00
1.881874876530921226e+00
1.010854950664583196e+00
1.599232183881580116e-01
-6.422067142691822994e-01
-1.366814861185406293e+00
-1.985180915637241972e+00
-2.468585107787184096e+00
-2.794372821245908245e+00
-2.968108443485521164e+00
-3.003561723247848203e+00
-2.914503322489765402e+00
-2.714703903168079524e+00
-2.417934127239707909e+00
-2.037964656661376051e+00
-1.589560076993212778e+00
-1.094812729438350951e+00
-5.790922619175419284e-01
-6.778363160508373009e-02
4.137282043251351293e-01
8.400582886989114151e-01
1.185821664342084247e+00
1.427378775468677086e+00
1.562495670048803298e+00
1.603297193388990349e+00
1.562173410389249284e+00
1.451514385949656427e+00
1.283710184970210388e+00
1.071150527629275873e+00
8.262289793775350333e-01
5.617330618074264370e-01
2.908586344744208407e-01
2.681909179834644774e-02
-2.171721718007527391e-01
-4.279017619030374697e-01
-5.921562840885135071e-01
-6.968955412026077711e-01
-7.380402613955997504e-01
-7.246349282533961489e-01
-6.667679718005979916e-01
-5.745278220617642262e-01
-4.580029090615119758e-01
-3.272816628243770953e-01
-1.924429280011893950e-01
-6.167849779502065921e-02
6.096099964485377637e-02
1.719747084044968011e-01
2.678617725700631058e-01
3.451213362276382979e-01
4.002525434633252832e-01
4.297548153791401759e-01
4.318756895541905338e-01
4.107560526240503496e-01
3.717775656316549826e-01
3.203329131793445361e-01
2.618330822446048867e-01
2.016907854169034398e-01
1.453188922929576909e-01
9.739863127081925531e-02
5.873460869252911803e-02
2.885722838288135028e-02
7.296141199168007518e-03
-6.419002001339227381e-03
-1.275855036135521703e-02
-1.219285302360179069e-02
-5.274663944779128810e-03
6.748946417532153408e-03
2.228289266646277245e-02
3.972948457599632249e-02
5.749103192011469771e-02
7.396984447281292063e-02
8.756823200806868046e-02
9.677684620537101157e-02
1.013519932626236048e-01
1.019963152220512703e-01
9.943523514577140565e-02
9.439417609590097791e-02
8.759856113455631588e-02
7.977377996201782950e-02
7.163075090355765229e-02
6.361110422013738219e-02
5.586972291981724681e-02
4.854677050570087304e-02
4.178241048089079146e-02
3.571680634849243308e-02
3.049012161160884193e-02
2.624079834144357054e-02
2.298767619704696757e-02
2.055416560600371520e-02
1.874563437424964230e-02
1.736745030772286758e-02
1.622498121236020871e-02
1.512359489409914430e-02
1.386884136389218529e-02
1.232975668698593069e-02
1.053177785574057126e-02
8.523997482666514566e-03
6.355508180276204719e-03
4.075402561081326036e-03
1.732773237594251517e-03
-6.232872065736434286e-04
-2.950811506367947805e-03
-5.234981559242677870e-03
-7.467439941895657150e-03
-9.637727791988041567e-03
-1.172993970570998523e-02
-1.372729944074756701e-02
-1.561303252807452573e-02
-1.737403857544261507e-02
-1.901322944885889751e-02
-2.053837421242490219e-02
-2.195724811848233718e-02
-2.327762641937204321e-02
-2.450728436743493735e-02
-2.565399721501256114e-02
-2.672486597765268840e-02
-2.772046958037837835e-02
-2.863772993743525855e-02
-2.947352858324212704e-02
-3.022474705221716434e-02
-3.088826687877887014e-02
-3.146096959734559495e-02
-3.193984578636022142e-02
-3.232372798138705844e-02
-3.261298257712663684e-02
-3.280802274480355829e-02
-3.290926165564226485e-02
-3.291711248086730268e-02
-3.283198862201929663e-02
-3.265522397186535614e-02
-3.239075871291937497e-02
-3.204260310763802633e-02
-3.161473337117461091e-02
-3.111112571868221086e-02
-3.053575636531411647e-02
-2.989260152622364580e-02
-2.918563973317607127e-02
-2.841907586437965663e-02
-2.759752800356904748e-02
-2.672565822193717980e-02
-2.580812859067654549e-02
-2.484960118098007709e-02
-2.385473806404068628e-02
-2.282820077526028640e-02
-2.177425331869490069e-02
-2.069605799757225778e-02
-1.959658783213845748e-02
-1.847881584263911386e-02
-1.734571504932036490e-02
-1.620025847242814385e-02
-1.504541913220865980e-02
-1.388510839436741563e-02
-1.272728084017826604e-02
-1.158097982223027511e-02
-1.045503824660338164e-02
-9.357412694382541765e-03
-8.295831695981029791e-03
-7.278023781287722670e-03
-6.309441410576626351e-03
-5.379906774987943015e-03
-4.472669566930294674e-03
-3.570956356012289223e-03
-2.657993711841999396e-03
-1.717008204027986032e-03
-7.312264021789272820e-04
3.117503707301667957e-04
1.375463411472213453e-03
2.392857134779627533e-03
3.296405958615269277e-03
4.018584300942582878e-03
4.491866579724348996e-03
4.648727212923484467e-03
4.429406040717035094e-03
3.930537158549126525e-03
3.393722649521678687e-03
3.066040641267819139e-03
3.194569261420899219e-03
4.026386637613942401e-03
5.808570897479865477e-03
8.818986443686978663e-03
1.463060991635435452e-02
2.658058839327823164e-02
4.813319639219166418e-02
8.275270843081844463e-02
1.339033990269053453e-01
2.050495426981629177e-01
2.996559232074921253e-01
4.212618285982587807e-01
5.735587527128729324e-01
7.602567722813399209e-01
9.850659640335257539e-01
1.251696404699465859e+00
1.563858171009060216e+00
1.925259918812716631e+00
2.336452730521451748e+00
2.788123315459534179e+00
3.269037394765851534e+00
3.767960689579024525e+00
4.273658921037656100e+00
4.774897810280661403e+00
5.260443078446545684e+00
5.718268391106728465e+00
6.132486150187366647e+00
6.486033875585641262e+00
6.761845548753927737e+00
6.942832964477136493e+00
7.011898678485573910e+00
6.951945216072422440e+00
6.748494742393742030e+00
6.407357716784746415e+00
5.943814289402106432e+00
5.373198002634874015e+00
4.710842398872371106e+00
3.972081020503999138e+00
3.172247409918691030e+00
2.327249521830421219e+00
1.460452166922875161e+00
6.004289531795257151e-01
-2.241399329926280770e-01
-9.845743051872717366e-01
-1.652193976997572644e+00
-2.198318762016776340e+00
-2.595091768464435678e+00
-2.834695040976155322e+00
-2.929982290440438231e+00
-2.894757106676500769e+00
-2.742823079503661443e+00
-2.487983798741134400e+00
-2.144042854208294102e+00
-1.724876656111859141e+00
-1.248684890654206514e+00
-7.402863861087425335e-01
-2.250579619851823809e-01
2.716235622063475907e-01
7.243813669561272039e-01
1.107838632754125641e+00
1.396662173283747865e+00
1.575971358680632761e+00
1.654826670114166287e+00
1.645626310148598614e+00
1.560768481348123737e+00
1.412651386276996934e+00
1.213673227499378227e+00
9.762322181415891142e-01
7.128884301560881598e-01
4.367729566082977355e-01
1.611427504775372332e-01
-1.007452352570390453e-01
-3.356340476160675768e-01
-5.302667336203771287e-01
-6.713863402906528055e-01
-7.485036909313693698e-01
-7.664127101469361270e-01
-7.351535426129182094e-01
-6.647711903021003010e-01
-5.653121784919145076e-01
-4.468240181672858968e-01
-3.193542368736758674e-01
-1.924972558062516548e-01
-7.183145385134748206e-02
3.916253997751451693e-02
1.370221027794179813e-01
2.182846116535336056e-01
2.794874436989679967e-01
3.171679760148453098e-01
3.281766914012606562e-01
3.141277808516523273e-01
2.803432297866425005e-01
2.322427807681358980e-01
1.752461763580494547e-01
1.147731591182639260e-01
5.624347161070623879e-02
4.989059113992225930e-03
-3.628393730763065234e-02
-6.788413112845517738e-02
-9.028618874784072323e-02
-1.039647765651221245e-01
-1.093945609796519169e-01
-1.070502083907706181e-01
-9.741334249256447531e-02
-8.138807775038356396e-02
-6.056966292363482468e-02
-3.661894117035821572e-02
-1.119675564860032890e-02
1.403605048358790020e-02
3.741863406817145382e-02
5.729144999772339819e-02
7.257810939034152475e-02
8.370282193326832043e-02
9.132785775659121863e-02
9.611548699039478005e-02
9.872797976476661852e-02
9.982760620979033717e-02
1.000766364554691312e-01
1.000423624639244780e-01
9.991324847190051484e-02
9.978332224720552757e-02
9.974661155764090459e-02
9.989714417101376587e-02
1.003289478551282476e-01
1.011360503777890552e-01
1.023779401131463679e-01
1.038976778508535898e-01
1.054546756718037492e-01
1.068100780804300126e-01
1.077679964622506315e-01
1.081749504313992000e-01
1.078792602993109001e-01
1.067433909915739970e-01
1.047741838671250453e-01
1.020638283144455899e-01
9.870605941046463327e-02
9.479461477252194845e-02
9.042323201795478271e-02
8.568564876410315889e-02
8.067444302706396064e-02
7.546130999796622774e-02
7.009984671879068707e-02
6.464305114388166351e-02
5.914392122758359294e-02
5.365545492423818424e-02
4.823065018819061578e-02
4.292232683786540576e-02
3.777662290656178673e-02
3.283113471086656493e-02
2.812290139850842641e-02
2.368896211721278552e-02
1.956635601470815833e-02
1.579212223871999388e-02
1.240245107623900306e-02
9.407332031075688050e-03
6.787251389629002027e-03
4.521253402951368704e-03
2.588382322094565178e-03
9.676823981114768183e-04
-3.618021179461313667e-04
-1.421027730488013015e-03
-2.231750038599500992e-03
-2.818039622811675977e-03
-3.204383868878545819e-03
-3.415270162553839511e-03
-3.475185889591071806e-03
-3.408618435744471299e-03
-3.240055186767436951e-03
-2.993828073283259696e-03
-2.693567766819498534e-03
-2.362707291197233342e-03
-2.024679658959056740e-03
-1.702917882646987589e-03
-1.420854974803630435e-03
-1.201923947971228783e-03
-1.069618844771418010e-03
-1.047868816251203540e-03
-1.160791962303704596e-03
-1.432253359351334148e-03
-1.872044800449913608e-03
-2.468783498008508565e-03
-3.209337886197542473e-03
-4.080494530194022848e-03
-5.068069860797420022e-03
-6.157140015948938533e-03
-7.332649117482645251e-03
-8.579535057621989758e-03
-9.882735728590733015e-03
-1.122718902261271058e-02
-1.259797007868772994e-02
-1.398311488896263229e-02
-1.537351542910810748e-02
-1.676017993909569015e-02
-1.813411665889688718e-02
-1.948633382848292961e-02
-2.080783968782545443e-02
-2.208945921177278560e-02
-2.331317160369459837e-02
-2.444835638436901673e-02
-2.546342945372362040e-02
-2.632680671168573933e-02
-2.700690405818272077e-02
-2.747213739314180794e-02
-2.769114412235398892e-02
-2.766563142909569950e-02
-2.746558742535630537e-02
-2.716946947742121879e-02
-2.685573495157561261e-02
-2.660284121410502745e-02
-2.648924563129421636e-02
-2.659338931165187297e-02
-2.692996083523363504e-02
-2.730530541992896160e-02
-2.748327672235260227e-02
-2.722772839912001794e-02
-2.630251410684614211e-02
-2.447148750214633503e-02
-2.149850224163604023e-02
-1.673272048895146219e-02
-7.406128079549720647e-03
9.923197739675815310e-03
3.869746400477022674e-02
8.235887775176926884e-02
1.443496460167361106e-01
2.281119758356908722e-01
3.371067958099048245e-01
4.749474191545488555e-01
6.453213583434488365e-01
8.519166465655393372e-01
1.098427604718223982e+00
1.388563230442395824e+00
1.726034611717146783e+00
2.113954779952527119e+00
2.547209288406203420e+00
3.014699721928950638e+00
3.505192226499739494e+00
4.007452876980508449e+00
4.510247748233180864e+00
5.002342915119993627e+00
5.472401763850647249e+00
5.906394855738916760e+00
6.287402103651614560e+00
6.598361104754089546e+00
6.822209456211877132e+00
6.941884755190294243e+00
6.940324598854800797e+00
6.800650615554146405e+00
6.517795930264560944e+00
6.105458294434036759e+00
5.579004217558890311e+00
4.953800209135057919e+00
4.245212778658793873e+00
3.468608435626411968e+00
2.639365691108178869e+00
1.776423693710927010e+00
9.072340262226735730e-01
6.049353296985730127e-02
-7.351009417211029628e-01
-1.450852553524270672e+00
-2.058064458113101125e+00
-2.528039945815655276e+00
-2.839744656864747085e+00
-3.000436884627694756e+00
-3.023903561004231300e+00
-2.923931617893983592e+00
-2.714307987196672212e+00
-2.408819600811883177e+00
-2.021253390639403680e+00
-1.566706357175873032e+00
-1.067855988124352784e+00
-5.500999938230572983e-01
-3.883960138869728407e-02
4.405239620616052121e-01
8.625894694111231331e-01
1.201955693542828829e+00
1.435663214243539043e+00
1.563541969915213770e+00
1.597840821116013110e+00
1.550933562816086964e+00
1.435195068827078257e+00
1.263004235818771193e+00
1.046740897942374682e+00
7.988128947068781072e-01
5.320811669831624346e-01
2.597734828410347974e-01
-4.873676224457328121e-03
-2.486246448758786531e-01
-4.582437613671753729e-01
-6.204953639524753983e-01
-7.224565477261618573e-01
-7.613538308098088958e-01
-7.465410955080526989e-01
-6.880845045194606824e-01
-5.960502205425726174e-01
-4.805044062759620260e-01
-3.515132244182215815e-01
-2.191179194403339303e-01
-9.113996959800141351e-02
2.853755254534255312e-02
1.364360584017995370e-01
2.290769593834820206e-01
3.029816669025558462e-01
3.546715923711211693e-01
3.806717422788616911e-01
3.796545879324447759e-01
3.560676205312541809e-01
3.153193428101974116e-01
2.628182576489651590e-01
2.039728679272576894e-01
1.441916765247376053e-01
8.888318632111426310e-02
4.251504201465280963e-02
5.626478947653702767e-03
-2.226840608909740060e-02
-4.165551917717450620e-02
-5.302076639813177450e-02
-5.685005383353625846e-02
-5.362928756494787091e-02
-4.395454312027277655e-02
-2.914594154102895934e-02
-1.081591610163214895e-02
9.422286033068466571e-03
2.995541769821340877e-02
4.917023172894221389e-02
6.545348096040660979e-02
7.731816034414654148e-02
8.463544866873953798e-02
8.810348373407955735e-02
8.843213166344116027e-02
8.633026603916196806e-02
8.250074315094248212e-02
7.764416365193245462e-02
7.244624756062877091e-02
6.730662170925404142e-02
6.236701834263937844e-02
5.776335337884543758e-02
5.363518790017790527e-02
5.012225952145480529e-02
4.736430585749266953e-02
4.549773291643618295e-02
4.452214294510521697e-02
4.425509046418854564e-02
4.450151739133595408e-02
4.506636564419741475e-02
4.575457714042236584e-02
4.637109379766064104e-02
4.672143419799961589e-02
4.668665966521064192e-02
4.629775524845006207e-02
4.560338767194186543e-02
4.465222365990999948e-02
4.349292993657982720e-02
4.217417322617515729e-02
4.074461471664108519e-02
3.924443897929032199e-02
3.768996093821726928e-02
3.609382488277442652e-02
3.446868319339460585e-02
3.282718825050805200e-02
3.118199243454780265e-02
2.954574812594468192e-02
2.792886514725128472e-02
2.633116155501893929e-02
2.474933137264190286e-02
2.318006817393459054e-02
2.162006553271329443e-02
2.006601702279243310e-02
1.851461621798658475e-02
1.696347240185931693e-02
1.541705021126941674e-02
1.388292152309053215e-02
1.236867362905995013e-02
1.088189382091487266e-02
9.430169390394095921e-03
8.021087629234905161e-03
6.662076201700365893e-03
5.358570229332663103e-03
4.114651195819242317e-03
2.934374756091454213e-03
1.822101328876980135e-03
7.853119690076987508e-04
-1.666828567542573837e-04
-1.024527704127070355e-03
-1.778362851171237788e-03
-2.417827153027299163e-03
-2.934743906117460652e-03
-3.326647401468207921e-03
-3.591983648923517767e-03
-3.729198658327322318e-03
-3.736743334532178270e-03
-3.613330156839674161e-03
-3.358059578208185802e-03
-2.970063464521584175e-03
-2.448473681663289239e-03
-1.792422095516642234e-03
-1.001040571965676343e-03
-7.345868596067199965e-05
9.916726629877411787e-04
2.196767145010042679e-03
3.544381945169760260e-03
5.037074248530534586e-03
6.677401240154643043e-03
8.467920105106094275e-03
1.041118788262614461e-02
1.250796991792693831e-02
1.474658598846822176e-02
1.710838350329630872e-02
1.957457243410974657e-02
2.212636275260601582e-02
2.474496443048155789e-02
2.741158743943364340e-02
3.011022087892670576e-02
3.283971605416963202e-02
3.560387191606598917e-02
3.840649077635713282e-02
4.125137494678462330e-02
4.414232673909029847e-02
4.708314846501464312e-02
5.007159570992187475e-02
5.305366474916417552e-02
5.594906548863145396e-02
5.867730122763636924e-02
6.115787526549229525e-02
6.331029090151080174e-02
6.505405143500625487e-02
6.632034593897913333e-02
6.721093345808921982e-02
6.795672110225574325e-02
6.879181588046197338e-02
6.995065827483684662e-02
7.167403942773066527e-02
7.420844466122533678e-02
7.785175482775590072e-02
8.435176479048266118e-02
9.707594546498375665e-02
1.194778308223760493e-01
1.550164276235279637e-01
2.071530691791672318e-01
2.793490973228197616e-01
3.750670609875871864e-01
4.978565392790398336e-01
6.514111517156939701e-01
8.394380423432510341e-01
1.065644355207529870e+00
1.333737234354179346e+00
1.647423823829051726e+00
2.010401036460202739e+00
2.422517412016025329e+00
2.874011198145494994e+00
3.353645183302938815e+00
3.850182155943060458e+00
4.352384904520270048e+00
4.849016217488969716e+00
5.328838881849686793e+00
5.779610626823679098e+00
6.185206217308865106e+00
6.528564095488159857e+00
6.792622813917524205e+00
6.960320925153072658e+00
7.014596981750744753e+00
6.938389536266569735e+00
6.718107708035345738e+00
6.361210742949026553e+00
5.883052124768408220e+00
5.298999318380430701e+00
4.624419788671605858e+00
3.874681000528797714e+00
3.065150418838928470e+00
2.212005237715236383e+00
1.339384905286530092e+00
4.759514999414184433e-01
-3.495808694157526708e-01
-1.108498093880667668e+00
-1.772086064549468265e+00
-2.311630672517726026e+00
-2.699696923545363614e+00
-2.930889305709468484e+00
-3.018395865536859901e+00
-2.975986270349334273e+00
-2.817430315880451008e+00
-2.556503389987054398e+00
-2.206988512492841004e+00
-1.782809197677877933e+00
-1.302831823151493262e+00
-7.920698651056637951e-01
-2.759213638644926747e-01
2.202113823571196505e-01
6.709217041472429477e-01
1.050802732934388972e+00
1.334568617032240390e+00
1.509281070359091759e+00
1.584837599570948941e+00
1.573606358170246411e+00
1.487955499659448844e+00
1.340253177541022245e+00
1.142867545317482580e+00
9.081669986606285550e-01
6.487195934849842027e-01
3.776544187756618598e-01
1.081983784502303092e-01
-1.464216235737452743e-01
-3.729786833788537592e-01
-5.582458970474900584e-01
-6.889963606622170333e-01
-7.555525281965685958e-01
-7.637477459857976436e-01
-7.236470798857645992e-01
-6.453151072355728379e-01
-5.388164053742829918e-01
-4.142155516410019889e-01
-2.815771233748486368e-01
-1.503564843054634170e-01
-2.580796551817662876e-02
8.858521001310359910e-02
1.893460390599508991e-01
2.729975183939519767e-01
3.360626447867419708e-01
3.750644150098967344e-01
3.869771255158222512e-01
3.739022528356309993e-01
3.411934064714213233e-01
2.942559486575558880e-01
2.384952416284275289e-01
1.793166476183891134e-01
1.221255288618286472e-01
7.218565171279255066e-02
3.184773735229406988e-02
7.284851113782825349e-04
-2.166115173682518769e-02
-3.581022984771094209e-02
-4.220944547285211679e-02
-4.135294732024286102e-02
-3.374527650910212617e-02
-2.034022815826773412e-02
-2.713988332311886853e-03
1.751152236436893939e-02
3.871661571145958852e-02
5.928716364841513098e-02
7.760988929914630630e-02
9.207603771455590003e-02
1.017738029075305334e-01
1.072341027950136638e-01
1.091667737890483908e-01
1.082816523016800619e-01
1.052885747449535808e-01
1.008973775309155302e-01
9.581785183422826535e-02
9.064127169557276154e-02
8.558341944676157997e-02
8.078588913755631318e-02
7.639027481772450723e-02
7.253817053702821260e-02
6.937117034523210268e-02
6.703086829210148923e-02
6.561405424995472857e-02
6.499579078206944860e-02
6.498239485731872878e-02
6.538010455948198296e-02
6.599515797234244141e-02
6.663379317967890736e-02
6.710224826527225184e-02
6.722609317661577821e-02
6.698294886765863987e-02
6.642235006931299091e-02
6.559425967193524554e-02
6.454864056588026366e-02
6.333545564150262763e-02
6.200466778915951493e-02
6.060452562495214496e-02
5.916061930398949092e-02
5.768251035334551191e-02
5.617942200038025108e-02
5.466057747245533366e-02
5.313519999693048362e-02
5.161251280116536944e-02
5.010143881857694048e-02
4.860342152376797425e-02
4.711209221454149693e-02
4.562071531164253041e-02
4.412255545031965737e-02
4.261204806167771114e-02
4.108754058006522381e-02
3.954826455179451250e-02
3.799749546449646825e-02
3.644475567480150169e-02
3.490010242958654224e-02
3.337303384023525971e-02
3.186931778116802033e-02
3.039319555773000239e-02
2.894890011212845893e-02
2.753969785410644716e-02
2.616661146376389815e-02
2.483034602746168884e-02
2.353160663156007859e-02
2.227109836242068680e-02
2.104952630640422387e-02
1.986759555890219714e-02
1.872620724565598332e-02
1.762696397759361266e-02
1.657162521428732008e-02
1.556195041530995457e-02
1.459969904023322371e-02
1.368663054862967639e-02
1.282450440007180253e-02
1.201499988577367506e-02
1.125851340268052385e-02
1.055174317083977520e-02
9.890446878837095765e-03
9.270382208098618820e-03
8.687306840050725704e-03
8.136978456119140293e-03
7.615268697141781493e-03
7.119075726150757462e-03
6.645841313562534866e-03
6.193012191749533261e-03
5.758035093085076862e-03
5.338356749941994620e-03
4.931423894693310640e-03
4.534474372947177624e-03
4.141506790802561983e-03
3.743966733146075580e-03
3.333230584603029140e-03
2.900674729798752901e-03
2.437675553358088776e-03
1.935609439906602926e-03
1.386178638863703972e-03
7.910799070388122023e-04
1.636289120847543750e-04
-4.822056213288187804e-04
-1.132454968532440849e-03
-1.772295162539975523e-03
-2.382271695411785923e-03
-2.941725773025397235e-03
-3.458989654232311542e-03
-3.992394528324251339e-03
-4.605223798504545774e-03
-5.360705107039596268e-03
-6.320803579478630717e-03
-7.546232828543786471e-03
-9.097493386207295210e-03
-1.095703466401480933e-02
-1.290369711908230521e-02
-1.468353709435347987e-02
-1.604261093277344757e-02
-1.672697497728635463e-02
-1.648268557083749225e-02
-1.505579905637134328e-02
-1.166411765317095298e-02
-3.388116313155954337e-03
1.323220928376343114e-02
4.165686348730229804e-02
8.534585064719663050e-02
1.477591751131266673e-01
2.323568412348215317e-01
3.426237885907089109e-01
4.822026594393006294e-01
6.547920964185308668e-01
8.640882837667844818e-01
1.113787396265852658e+00
1.407585608697766055e+00
1.749179095844479059e+00
2.141414242907739851e+00
2.578326399054000628e+00
3.048735469929597208e+00
3.541393274725460838e+00
4.045051632631913918e+00
4.548462362839880591e+00
5.040377284540287661e+00
5.509386556071416585e+00
5.941109225052338516e+00
6.318557124856781115e+00
6.624653596978958170e+00
6.842321982912721978e+00
6.954485624152320966e+00
6.944067862191831253e+00
6.794341420870166459e+00
6.502054771838661651e+00
6.081400501120840296e+00
5.547730862541889962e+00
4.916398109926500837e+00
4.202754668953846640e+00
3.422154516574112293e+00
2.589988314423158133e+00
1.725875287590156626e+00
8.575882578323870131e-01
1.382867656704932051e-02
-7.767020057061617688e-01
-1.485302614265759047e+00
-2.083272635548692353e+00
-2.541919596758194455e+00
-2.842044383746866743e+00
-2.992335534874563496e+00
-3.006576409832647290e+00
-2.898550368312327485e+00
-2.682040770004705532e+00
-2.370830974601172425e+00
-1.978704341792870913e+00
-1.521131243809763056e+00
-1.021302123555454244e+00
-5.046144618342399690e-01
3.534086445624977542e-03
4.777458663752616741e-01
8.926232230464241635e-01
1.222768501550654641e+00
1.446086511046917433e+00
1.564388083076133862e+00
1.590010597910836099e+00
1.535340490347836484e+00
1.412764255580652994e+00
1.234668388802750316e+00
1.013439385207501875e+00
7.615044720619164043e-01
4.917800089869870384e-01
2.175055047531701535e-01
-4.807379503112352293e-02
-2.917126447571580794e-01
-5.001657988165282287e-01
-6.601880116007715626e-01
-7.590463512158699411e-01
-7.953047487630663381e-01
-7.785602318850718406e-01
-7.188693794179003005e-01
-6.262887701975508037e-01
-5.108749830600195496e-01
-3.826845968412496690e-01
-2.517228187647665427e-01
-1.254364590980593663e-01
-7.581875317643167918e-03
9.837192785107910786e-02
1.889559456828513173e-01
2.607006686493246739e-01
3.101283544089877831e-01
3.337685881275299637e-01
3.307278558069187691e-01
3.056784982314760257e-01
2.640182393167314068e-01
2.111448029782112268e-01
1.524559551985365247e-01
9.334973104201800542e-02
3.922402687980021396e-02
-5.702024250849363832e-03
-4.111629596640008211e-02
-6.751505592340240058e-02
-8.539457177839274160e-02
-9.525111118788462394e-02
-9.758094180841772602e-02
-9.288033129652188691e-02
-8.178910730575207622e-02
-6.569071588784561322e-02
-4.620864712240260741e-02
-2.496650974923815200e-02
-3.587912508192254296e-03
1.630353586091951718e-02
3.308422661828037958e-02
4.530422682477583396e-02
5.294972173913617408e-02
5.671895122429970043e-02
5.731873872597843811e-02
5.545606501245489706e-02
5.183791085201229498e-02
4.717125701293101853e-02
4.214086300077174441e-02
3.712012144093040228e-02
3.225310082338253559e-02
2.767853955413393519e-02
2.353517603918483733e-02
1.996174868453671342e-02
1.709699589619102789e-02
1.507393409628227099e-02
1.387191902726989806e-02
1.330329195644976842e-02
1.317199559265704034e-02
1.328197264472714273e-02
1.343716582149602490e-02
1.344151783179834900e-02
1.310029437410034636e-02
1.230675815656561388e-02
1.109576765245323844e-02
9.514990377174455810e-03
7.612093846137604758e-03
5.434987648528595040e-03
3.040060543049700505e-03
4.941718305601746275e-04
-2.145923996038533003e-03
-4.849547188516475926e-03
-7.589891444370294553e-03
-1.034015046109649193e-02
-1.307352632077443330e-02
-1.576339956656612820e-02
-1.838332158736735722e-02
-2.090968913358302525e-02
-2.332953057219571552e-02
-2.563236292567529911e-02
-2.780770321648903809e-02
-2.984506846710497513e-02
-3.173397569999045903e-02
-3.346394193761513536e-02
-3.502327531788372583e-02
-3.639318551581687683e-02
-3.755229953639975526e-02
-3.847924068417744176e-02
-3.915263226369594673e-02
-3.955109757950037858e-02
-3.965325993613606076e-02
-3.943796647886959467e-02
-3.888645447793226406e-02
-3.799664090782227388e-02
-3.679020727386657363e-02
-3.529084539884119048e-02
-3.352224710552067360e-02
-3.150810421668102934e-02
-2.927207501012343144e-02
-2.683726434458987703e-02
-2.422632308483096616e-02
-2.146188868040893941e-02
-1.856659858088886145e-02
-1.556309023583482901e-02
-1.247400109481204382e-02
-9.321977511467448643e-03
-6.129962439194412693e-03
-2.921257686556402028e-03
2.808134408417071429e-04
3.452927637398530824e-03
6.571761597509263170e-03
9.613992015570187524e-03
1.255630165772354465e-02
1.537593710338230890e-02
1.805115830592927267e-02
2.056033101070657565e-02
2.288182096305733590e-02
2.499408070894231296e-02
2.688532240364043674e-02
2.856232344097544076e-02
3.003249180721000514e-02
3.129928400890342327e-02
3.236548951828278897e-02
3.323389780757366602e-02
3.390729908427563000e-02
3.438866635013916595e-02
3.468139453018029977e-02
3.479249198699232298e-02
3.474402050908251965e-02
3.456202667313689608e-02
3.427255708193764627e-02
3.390165833826672137e-02
3.347537704490609334e-02
3.301975980463799087e-02
3.255275503880298432e-02
3.203828575306644222e-02
3.141816589417602279e-02
3.063414305248488012e-02
2.962796481834680321e-02
2.834137878211557063e-02
2.671613253414376055e-02
2.471071706242271987e-02
2.246683199079427609e-02
2.023887086304921104e-02
1.828218901284633935e-02
1.685203986975688725e-02
1.620367686335264998e-02
1.659235342320510356e-02
1.835505318767030603e-02
2.343368117745244991e-02
3.523575508052827210e-02
5.722258901912993800e-02
9.285549711548871099e-02
1.455957934918611085e-01
2.189047922704349669e-01
3.162461651898492709e-01
4.411832476302542383e-01
5.974136768572159140e-01
7.886445692052199696e-01
1.018583041008810142e+00
1.290936208602241564e+00
1.609411188320040154e+00
1.977681784741236015e+00
2.394836336558373802e+00
2.850742368323432085e+00
3.334162640779779974e+00
3.833859914670838975e+00
4.338596947801915960e+00
4.837132259574938864e+00
5.318210987150948199e+00
5.769325244886584159e+00
6.174125275663464585e+00
6.515526045160429547e+00
6.776442519056403491e+00
6.939789663030000888e+00
6.988482396145199615e+00
6.905435351498435459e+00
6.678051390336274373e+00
6.315239194162622915e+00
5.832341029034320279e+00
5.244700331791568360e+00
4.567660539274003284e+00
3.816565088321430377e+00
3.006757415773319675e+00
2.154682824107069905e+00
1.285163386990802348e+00
4.268689445264554072e-01
-3.915104224280451795e-01
-1.141284633015837713e+00
-1.793763606379947140e+00
-2.320257261662617587e+00
-2.693953645573881950e+00
-2.911904558504414986e+00
-2.987576712460254136e+00
-2.934746942045507456e+00
-2.767188907390827346e+00
-2.498676268626741415e+00
-2.142982685884129435e+00
-1.714114898980013013e+00
-1.231599741656326019e+00
-7.205740970144660640e-01
-2.064259204021474670e-01
2.854568328329186722e-01
7.296862073424196238e-01
1.100874247778660164e+00
1.373891732329473703e+00
1.537896243795220608e+00
1.603506380831784650e+00
1.583109210165477121e+00
1.489091798522468313e+00
1.333841212629057749e+00
1.129744519211444365e+00
8.891898688999650968e-01
6.248061637911211941e-01
3.497649410134657244e-01
7.731201770826476305e-02
-1.793067889833139805e-01
-4.068456619197919899e-01
-5.920582225286099565e-01
-7.216957942140083127e-01
-7.869730583165660542e-01
-7.945875679015084181e-01
-7.545912283498381612e-01
-6.770359450426203241e-01
-5.719736233608735398e-01
-4.494561780871121348e-01
-3.195357124037638830e-01
-1.914669077813342946e-01
-7.017660221593927106e-02
4.086936172577625148e-02
1.382062743087371093e-01
2.183694257980070552e-01
2.778941064586221699e-01
3.133156065555495751e-01
3.217943532329168299e-01
3.059274559097863166e-01
2.711095052428568741e-01
2.227581569599460243e-01
1.662910667888293781e-01
1.071258904572699594e-01
5.068028369310574599e-02
2.158081090734733157e-03
-3.641703357753194037e-02
-6.546403487759155926e-02
-8.549115608784055298e-02
-9.701698714671271040e-02
-1.005601387423990245e-01
-9.663922156311072209e-02
-8.579029079391357893e-02
-6.905576959143540361e-02
-4.805082656032753918e-02
-2.442141347208295205e-02
1.865179018131976618e-04
2.412701578984678338e-02
4.575412842052997003e-02
6.343279243882590790e-02
7.634310961419486785e-02
8.503175626363823625e-02
9.017589390378863423e-02
9.245268405127900213e-02
9.253928822274304355e-02
9.111286793481682134e-02
8.885022938490669264e-02
8.628352913168418903e-02
8.357874965239935061e-02
8.084481010140476265e-02
7.819062963305661862e-02
7.572512740170628254e-02
7.356181436849371091e-02
7.185089006814353307e-02
7.070321654745317930e-02
7.000658417740519834e-02
6.959409365812095627e-02
6.929884568972131953e-02
6.895394097232614150e-02
6.839248111682524889e-02
6.744775755628336367e-02
6.597913732456038571e-02
6.400395948755790987e-02
6.159960264966839877e-02
5.884356182274606828e-02
5.581333201864684124e-02
5.258640824922301837e-02
4.924028552633030048e-02
4.585003639117418012e-02
4.246651695307014640e-02
3.912664945430698732e-02
3.586718924374185380e-02
3.272489167023536621e-02
2.973651208264710410e-02
2.693880582983746580e-02
2.436805981990566514e-02
2.205232664247607638e-02
2.001022742147838540e-02
1.823498807145404466e-02
1.670481079818148668e-02
1.539769673314325335e-02
1.429164700782116319e-02
1.336478956257244888e-02
1.259985442793017975e-02
1.198536700480247116e-02
1.151022214259422860e-02
1.116331469070994641e-02
1.093353949855409984e-02
1.080979141553131857e-02
1.078095457028631528e-02
1.083476980718430134e-02
1.095683586370909540e-02
1.113251595245931015e-02
1.134717328603323562e-02
1.158617107702944460e-02
1.183487253804626702e-02
1.207864114474550138e-02
1.230308251863802133e-02
1.249449218822460371e-02
1.263928773931527819e-02
1.272388675771972399e-02
1.273470682924795691e-02
1.265898069239028076e-02
1.249542486744126615e-02
1.225114198579275830e-02
1.193297724726997272e-02
1.154764938359378705e-02
1.110187712186519286e-02
1.060237918918493713e-02
1.005587431265386744e-02
9.469079482089848981e-03
8.848854962857524362e-03
8.203131920781125616e-03
7.540300713186992750e-03
6.868753423511736976e-03
6.196882135192414466e-03
5.533078931666204556e-03
4.885735896370158211e-03
4.262943194112498585e-03
3.669301345784538836e-03
3.107169025093306242e-03
2.578867967728258950e-03
2.086719909378667755e-03
1.633046585733546928e-03
1.220169732482454580e-03
8.509391328354084637e-04
5.393037680700303029e-04
3.093632208929736707e-04
1.778522772406374475e-04
1.544048067976839123e-04
2.483944581313790047e-04
4.691948798089533193e-04
8.254632577134345985e-04
1.292529891209257594e-03
1.798968679385160724e-03
2.269854258379877792e-03
2.630261264332131761e-03
2.805264333380517224e-03
2.719938101663826099e-03
2.299931789795274604e-03
1.564304712205076683e-03
7.280545642838177033e-04
3.085969183977453970e-05
-2.876015593175989225e-04
1.234915662007675732e-05
1.170390185461968151e-03
3.426411205472002126e-03
7.680316154377163362e-03
1.695274239253920928e-02
3.468942895843491608e-02
6.433611489051901944e-02
1.093385392272655798e-01
1.731427708290977641e-01
2.592043519801505158e-01
3.710218742341448439e-01
5.122570235357805091e-01
6.866223530729580471e-01
8.978304335317796037e-01
1.149593835598407443e+00
1.445625129958687749e+00
1.789636883424131630e+00
2.184177804765732311e+00
2.622499626156652219e+00
3.093398420889134748e+00
3.585642259352400441e+00
4.087999211935708033e+00
4.589237349027691870e+00
5.078124741017609800e+00
5.543189710232936385e+00
5.969733775935056386e+00
6.340746835416146254e+00
6.639168481368636243e+00
6.847938306485022331e+00
6.949995903457560686e+00
6.928280864978784592e+00
6.766325116591568545e+00
6.462761138039106790e+00
6.032190925619863364e+00
5.489974755689452479e+00
4.851461720371487374e+00
4.132000086647331649e+00
3.346938121498542085e+00
2.511703913916137232e+00
1.646637653492710518e+00
7.797647361873204508e-01
-6.021992700139731924e-02
-8.446214250737807960e-01
-1.544744847031211288e+00
-2.131895281874931491e+00
-2.577419891869008328e+00
-2.864164549418805716e+00
-3.002030131990173434e+00
-3.004805504810029060e+00
-2.886279533105317707e+00
-2.660241082103006249e+00
-2.340479017029892361e+00
-1.940782269023269890e+00
-1.477069608147156377e+00
-9.729906645533417109e-01
-4.539485986864311151e-01
5.465342900958289341e-02
5.274122580906929203e-01
9.389247384354387771e-01
1.263788556633240301e+00
1.480947603728774986e+00
1.594048028708316966e+00
1.615454218856844593e+00
1.557540465365353066e+00
1.432681059424709691e+00
1.253250292225954077e+00
1.031622451759719894e+00
7.802280863874719863e-01
5.120167118320492206e-01
2.402167673578516349e-01
-2.194064383556516840e-02
-2.612244185487411774e-01
-4.644034535819215326e-01
-6.182466457356562417e-01
-7.103054876924274064e-01
-7.405025333614237981e-01
-7.186334731449386393e-01
-6.547690282878972923e-01
-5.589799200353123831e-01
-4.413368696321244289e-01
-3.119105983232924872e-01
-1.806798489526298401e-01
-5.472951931137209902e-02
6.226192859502461402e-02
1.668168785599946635e-01
2.554695134084480901e-01
3.247555417087992780e-01
3.712106720294303108e-01
3.914062891566427727e-01
3.849405017906064597e-01
3.566989479704029686e-01
3.120997017271497365e-01
2.565608370920239301e-01
1.955004280961494256e-01
1.343365487706417449e-01
7.848456972027127720e-02
3.191469297878903044e-02
-5.224844885121107674e-03
-3.341037880153770873e-02
-5.311824370058448180e-02
-6.482477451237268762e-02
-6.900630616700109687e-02
-6.613917359458322542e-02
-5.688280721107404764e-02
-4.264811552755213425e-02
-2.503877443877068620e-02
-5.658459958125500178e-03
1.388915190099080516e-02
3.200037440032654779e-02
4.706503525693735840e-02
5.768720574754714059e-02
6.396383207046371644e-02
6.658596807213990054e-02
6.624617436049567987e-02
6.363701154344859889e-02
5.945104022892067075e-02
5.438082102483027258e-02
4.908787590496294789e-02
4.390345112036787151e-02
3.895990116849205182e-02
3.438686810740904098e-02
3.031399399519840374e-02
2.687092088993404265e-02
2.418729084969080054e-02
2.238369923149569410e-02
2.141103063784450394e-02
2.106937778000283340e-02
2.115358701888096771e-02
2.145850471538589266e-02
2.177897723042790737e-02
2.190985092491628400e-02
2.164850554952103823e-02
2.089283308574826220e-02
1.967247979223178678e-02
1.803061933462682398e-02
1.602611046778629200e-02
1.372115075915534589e-02
1.117793777617879375e-02
8.458565700773156004e-03
5.612348798428938058e-03
2.663634127832315273e-03
-3.661204065667754697e-04
-3.455456900318139030e-03
-6.582917448970979947e-03
-9.727044148075085842e-03
-1.286638168510722754e-02
-1.598299629789244267e-02
-1.906944434303808195e-02
-2.212022672271185542e-02
-2.512984433907817713e-02
-2.809279809430419508e-02
-3.100358889055444128e-02
-3.385671762999656331e-02
-3.664512643816796728e-02
-3.935452106748794920e-02
-4.196850892336086158e-02
-4.447069719003148708e-02
-4.684469305174182585e-02
-4.907410369273569606e-02
-5.114430765621483244e-02
-5.304866466608296194e-02
-5.478484353910887533e-02
-5.635150752855189182e-02
-5.774732447635848309e-02
-5.897096222447478775e-02
-6.002108861484690971e-02
-6.089637148942100842e-02
-6.159560274521235640e-02
-6.212006217172601902e-02
-6.247328825749819126e-02
-6.265889912704641906e-02
-6.268051290488829697e-02
-6.254174771554137091e-02
-6.224622168352343665e-02
-6.179756759295697982e-02
-6.119974870300006614e-02
-6.045705507016943536e-02
-5.957379067502233810e-02
-5.855425949811541436e-02
-5.740276552000635191e-02
-5.612361272125219319e-02
-5.472109242655389533e-02
-5.319884534865097769e-02
-5.155956175359868721e-02
-4.980599095469568499e-02
-4.794162488404372230e-02
-4.597021058183553555e-02
-4.389549531961060846e-02
-4.172123532492846149e-02
-3.945292943207551889e-02
-3.709989047604481810e-02
-3.467193607612237272e-02
-3.217888385159526493e-02
-2.963055142175161777e-02
-2.703675640587858281e-02
-2.440731568285067418e-02
-2.174758788554787686e-02
-1.904794426145954567e-02
-1.629561008982982270e-02
-1.347781064990185261e-02
-1.058177122091720143e-02
-7.594717082120512608e-03
-4.503873512754410363e-03
-1.307033721284851487e-03
1.942469818573862609e-03
5.173123250706125956e-03
8.313402283440851637e-03
1.129178262510469564e-02
1.403673998402824204e-02
1.647652632146176521e-02
1.856088895279166262e-02
2.043276730083061488e-02
2.233202154069680381e-02
2.449923014986411102e-02
2.717497160580565480e-02
3.059982438599267301e-02
3.501436696789865521e-02
4.078167106951995080e-02
5.001374160148063658e-02
6.612772059226142141e-02
9.257210092873478791e-02
1.327953754977456990e-01
1.902460371861635913e-01
2.683725788808844492e-01
3.706275674298311618e-01
5.005756348719554438e-01
6.619047429597885168e-01
8.583091867922753027e-01
1.093483261468546131e+00
1.371121262087671822e+00
1.694917483748868081e+00
2.068488678783352075e+00
2.490103388426406994e+00
2.949313573941403810e+00
3.434870068826954004e+00
3.935531960764938830e+00
4.440062796723445615e+00
4.937226167248296882e+00
5.415781229605857838e+00
5.862965455350717114e+00
6.262277726840230763e+00
6.596653156924203287e+00
6.849026858452252675e+00
7.002333944274030664e+00
7.039509527239022901e+00
6.943488747503817393e+00
6.702894483263746928e+00
6.327959421214347735e+00
5.834047586535905161e+00
5.236523004408496718e+00
4.550749700012966414e+00
3.792091698529433064e+00
2.975913025138243739e+00
2.119034671274106163e+00
1.246959601773511395e+00
3.883934213916479528e-01
-4.279532006740480732e-01
-1.173369595225149498e+00
-1.819145093064241214e+00
-2.336569697706067039e+00
-2.699581551584552930e+00
-2.907577399799197604e+00
-2.974189021374793462e+00
-2.913204074256358300e+00
-2.738410216389012941e+00
-2.463595105717821365e+00
-2.102546400187687681e+00
-1.669412166732062497e+00
-1.184404060499314459e+00
-6.727686614826868805e-01
-1.599046304006147001e-01
3.287893725890586039e-01
7.679146873282810537e-01
1.132072653659133898e+00
1.396338785918428638e+00
1.552006697866535223e+00
1.610238957704710483e+00
1.583411927348983506e+00
1.483901968715471087e+00
1.324085443720173894e+00
1.116338714279297761e+00
8.730410734378842852e-01
6.068557606494555667e-01
3.309630284530495903e-01
5.859829112499068821e-02
-1.969979753305576009e-01
-4.225811001075339135e-01
-6.049062857599080134e-01
-7.307362983991757543e-01
-7.923315251496492184e-01
-7.971461962669560419e-01
-7.552373387498044766e-01
-6.766619795968220608e-01
-5.714771458067483545e-01
-4.497398643782256622e-01
-3.215071623099227671e-01
-1.958147799173243220e-01
-7.731043843310793362e-02
3.053639439312517967e-02
1.242562656734306770e-01
2.003797225197501142e-01
2.554373120441479905e-01
2.859595813586526258e-01
2.893157842488452980e-01
2.685551211491508661e-01
2.290828998544832129e-01
1.763120329396128394e-01
1.156554329793737512e-01
5.252601254853846158e-02
-7.663355763472476379e-03
-5.980794295559752755e-02
-1.022229778584272941e-01
-1.353594031663975517e-01
-1.597007341608602526e-01
-1.757304861232055204e-01
-1.839321743348099614e-01
-1.847893140770492382e-01
-1.788133976861247254e-01
-1.670771111009271004e-01
-1.511739672907517207e-01
-1.327186794952248394e-01
-1.133260125765333942e-01
-9.461073139686237976e-02
-7.818760081842046628e-02
-6.564991863954398876e-02
-5.765638657991720845e-02
-5.359034722525313904e-02
-5.274345214961066036e-02
-5.440735292705242698e-02
-5.787370113164321678e-02
-6.243414833744308223e-02
-6.738153797886298202e-02
-7.218130432826956600e-02
-7.665054134523764662e-02
-8.064920074935456873e-02
-8.403933671384573867e-02
-8.668565414044783479e-02
-8.845302721827924541e-02
-8.920636307847126800e-02
-8.888149026854591517e-02
-8.763517719071400869e-02
-8.566709373125908078e-02
-8.317690977646306771e-02
-8.036429521261002906e-02
-7.742891992598228967e-02
-7.457045380286252134e-02
-7.195534447956829227e-02
-6.958854735034232519e-02
-6.742601855982592596e-02
-6.542370318772693094e-02
-6.353754631375468920e-02
-6.172349301761630158e-02
-5.993748837902030530e-02
-5.813878042435498966e-02
-5.631211764891253663e-02
-5.445411868286593321e-02
-5.256146826891939378e-02
-5.063085114977611267e-02
-4.865895206813915241e-02
-4.664245461869181986e-02
-4.457866231966110121e-02
-4.247369386295034993e-02
-4.033987659914094193e-02
-3.818966431561206243e-02
-3.603551079974257054e-02
-3.388986983891161681e-02
-3.176519522049808808e-02
-2.967372838274225794e-02
-2.762256434154916965e-02
-2.561330934705243617e-02
-2.364694076731231956e-02
-2.172439028783573756e-02
-1.984658959413121426e-02
-1.801447037170528925e-02
-1.622898750686594879e-02
-1.449242035822581771e-02
-1.280906327537551827e-02
-1.118337958062781516e-02
-9.619832596297289359e-03
-8.122885644697248539e-03
-6.697002048141207677e-03
-5.346643892697291837e-03
-4.075980873969104433e-03
-2.888514774447533892e-03
-1.787634473228616201e-03
-7.743203951167398902e-04
1.551138841413988642e-04
1.004889485845881017e-03
1.779227522272994579e-03
2.482219481435049297e-03
3.117500849052323286e-03
3.688606890385416094e-03
4.199072870694060995e-03
4.652434055238935384e-03
5.052225709280384891e-03
5.401983098078239065e-03
5.705442754345802642e-03
5.967449333335868127e-03
6.193226817726707120e-03
6.387999523725330572e-03
6.556991767538512643e-03
6.705427865373613829e-03
6.838532133438150751e-03
6.961109750827860002e-03
7.074262214498566043e-03
7.177160175736635450e-03
7.268957603001190149e-03
7.348808464751687732e-03
7.415866729447296093e-03
7.469281650933103783e-03
7.507497714682549381e-03
7.537439521109532206e-03
7.574906151835299715e-03
7.635943579108701168e-03
7.736597775178074947e-03
7.892914712292291995e-03
8.120940362699894527e-03
8.435457015059816613e-03
8.813641963266935497e-03
9.189798669647010476e-03
9.496877152279516177e-03
9.668154567800174917e-03
9.636908242245195710e-03
9.336415501651092880e-03
8.701359962637269033e-03
7.775820166519984561e-03
6.789640820298809346e-03
5.990702959679769339e-03
5.626887620369142029e-03
5.946075838073747871e-03
7.196148648499629298e-03
9.626812938151655535e-03
1.429445612769583013e-02
2.432558340987347328e-02
4.317413630645952627e-02
7.429369352424051998e-02
1.211367246155930361e-01
1.871554879167406649e-01
2.758022417642239099e-01
3.905704462962448775e-01
5.351174288999326345e-01
7.131412501237909263e-01
9.283399705161029525e-01
1.184411650625357249e+00
1.485054350999980510e+00
1.833966132188549869e+00
2.233298132141515513e+00
2.675537026046697076e+00
3.149444399504240710e+00
3.643773957470952229e+00
4.147279404904218758e+00
4.648714446761437635e+00
5.136832787999394689e+00
5.600048499904609400e+00
6.023323801998747840e+00
6.389608992014235156e+00
6.681829297211343999e+00
6.882909944850811534e+00
6.975776162193229268e+00
6.943353176501009472e+00
6.769495983377153969e+00
6.454708294572881755e+00
6.013881818167217119e+00
5.462382081179812943e+00
4.815574610630155128e+00
4.088824933538526274e+00
3.297498576924446922e+00
2.457111097765505736e+00
1.588774532806746409e+00
7.207372752998715271e-01
-1.182893083492001507e-01
-8.995944598226683908e-01
-1.594467437971670787e+00
-2.174197501648320152e+00
-2.610195992164092704e+00
-2.887493977524596911e+00
-3.016975914213265053e+00
-3.012414837307789917e+00
-2.887583781885789236e+00
-2.656255783025061046e+00
-2.332203875803271043e+00
-1.929203645700086511e+00
-1.463665162408443354e+00
-9.596094256865054239e-01
-4.424237658290027242e-01
6.250164226143684054e-02
5.297625680709243667e-01
9.339504475073734380e-01
1.249656715252647210e+00
1.457058904729872983e+00
1.561461319062820374e+00
1.575230039101944035e+00
1.510731521603118299e+00
1.380332223322247254e+00
1.196398601015127294e+00
9.712971114377934034e-01
7.174708959235917005e-01
4.479081534944146514e-01
1.758331433656387666e-01
-8.552892729158401153e-02
-3.229528513064391371e-01
-5.232134215080733730e-01
-6.730854307253927304e-01
-7.604780031239932736e-01
-7.866400966100842718e-01
-7.615003371088453488e-01
-6.951353418938860385e-01
-5.976217282387469298e-01
-4.790361134170968427e-01
-3.494551147024876903e-01
-2.188029829524254788e-01
-9.377055738188594392e-02
2.205307210297552389e-02
1.252042599463819295e-01
2.122193605925355997e-01
2.796347284855350557e-01
3.239867180695898408e-01
3.418843018411439338e-01
3.334198723209761406e-01
3.036350010774936381e-01
2.579487772840311499e-01
2.017809913586202097e-01
1.405515129433452248e-01
7.968021168022335066e-02
2.457687009352210739e-02
-2.108067267513544230e-02
-5.729598727163759397e-02
-8.454361301520220418e-02
-1.032980892250169314e-01
-1.140339552203039897e-01
-1.172257503202719653e-01
-1.133480745981592791e-01
-1.031045800436757587e-01
-8.794535071582072761e-02
-6.947226701708852925e-02
-4.928919852386395850e-02
-2.901626039547684777e-02
-1.028150061663690371e-02
5.286979120229275131e-03
1.636249889152168943e-02
2.315282109974404687e-02
2.635275853413693303e-02
2.665732279041739886e-02
2.476152546430533327e-02
2.136037815151763802e-02
1.714889244777589861e-02
1.277863878445986874e-02
8.548701144870399227e-03
4.586982962382135653e-03
1.020253470430850136e-03
-2.024718097546264039e-03
-4.421162508108823427e-03
-6.042310527820223681e-03
-6.774852819005821106e-03
-6.689971617234958742e-03
-5.992691545058932527e-03
-4.891039066207030113e-03
-3.593040644407439338e-03
-2.306722743389780922e-03
-1.240111826882344618e-03
-5.956342227284764463e-04
-4.492263896196766349e-04
-7.477414502813021623e-04
-1.431995869499370216e-03
-2.442806112059575652e-03
-3.720988642747864641e-03
-5.207359926349771143e-03
-6.842969667554843829e-03
-8.583731956985519301e-03
-1.040911535990560362e-02
-1.230083434258684091e-02
-1.424139429588101684e-02
-1.621354706943914370e-02
-1.820004459310178499e-02
-2.018365338612501669e-02
-2.215141141349502227e-02
-2.410054325729478822e-02
-2.602975965398112226e-02
-2.793777134001163703e-02
-2.982328905184388965e-02
-3.168502352593472599e-02
-3.352168546038183927e-02
-3.533001530539008755e-02
-3.709949924317356568e-02
-3.881795429226652522e-02
-4.047348071405765246e-02
-4.205827433358596407e-02
-4.356761237736167525e-02
-4.499684732118001962e-02
-4.634173130120446821e-02
-4.760032224708505427e-02
-4.877150322692108686e-02
-4.985415835331442891e-02
-5.084717173886654090e-02
-5.174942749618002130e-02
-5.255980973785630284e-02
-5.327713415336407521e-02
-5.389957990436396867e-02
-5.442498018069855809e-02
-5.485116472175805696e-02
-5.517596326693289394e-02
-5.539720555561340049e-02
-5.551272132719019259e-02
-5.552036279838542393e-02
-5.541834443895766321e-02
-5.520517346617374865e-02
-5.487936547546379273e-02
-5.443943606225751936e-02
-5.388390082198506875e-02
-5.321127535007637993e-02
-5.242033010538368204e-02
-5.151470744287632575e-02
-5.050237925245803366e-02
-4.939146340341194624e-02
-4.819007776502171048e-02
-4.690634020656963415e-02
-4.554836859733927407e-02
-4.412430400109427359e-02
-4.264433679826030998e-02
-4.112228396509704648e-02
-3.957227221093895242e-02
-3.800749805117514118e-02
-3.644043686120417708e-02
-3.488354517068577992e-02
-3.334927016924181531e-02
-3.184458555415832504e-02
-3.036178942979874881e-02
-2.889074598577845779e-02
-2.742131941171113349e-02
-2.594337389721243156e-02
-2.444677363189705008e-02
-2.292138280538013467e-02
-2.137056038766360980e-02
-1.985384977548522445e-02
-1.844541413749065800e-02
-1.721930650497626239e-02
-1.624630339514749819e-02
-1.559342996536465346e-02
-1.532750568746351315e-02
-1.548450020509691168e-02
-1.589824033539250295e-02
-1.632116500901109601e-02
-1.650548998811914025e-02
-1.620343103488191064e-02
-1.516720391146493541e-02
-1.314902438003408627e-02
-9.726160229152611136e-03
-2.600031046172370658e-03
1.166717022438127846e-02
3.652928851300224489e-02
7.544016875020385926e-02
1.318536558664491765e-01
2.092235947922447270e-01
3.110102997575036055e-01
4.407979803160645416e-01
6.022823094155369539e-01
7.991629341987129820e-01
1.035139501808137963e+00
1.313911659386589381e+00
1.639179054076771003e+00
2.014491647946045294e+00
2.437289097698516649e+00
2.896900835871433433e+00
3.382096548151191762e+00
3.881645920223586899e+00
4.384318637775008298e+00
4.878884386491850300e+00
5.354098898084109770e+00
5.796907726358098145e+00
6.190673328350275284e+00
6.518336903054516185e+00
6.762838736491612934e+00
6.907117428895309885e+00
6.934111398470379939e+00
6.826763606604791867e+00
6.575082870977438709e+00
6.190422077388896938e+00
5.688148556375000275e+00
5.083629638471131251e+00
4.392232654212511633e+00
3.629324934135223835e+00
2.810273808774515381e+00
1.952327784445851089e+00
1.081594794006977889e+00
2.267884551342349564e-01
-5.833773555751233797e-01
-1.320197158204089227e+00
-1.954980189993259287e+00
-2.459037176418957138e+00
-2.807262811837252237e+00
-3.001300552758456863e+00
-3.054885624158731439e+00
-2.981812527739998941e+00
-2.795875765204076657e+00
-2.510869838253041220e+00
-2.140589248588756099e+00
-1.699355778623745872e+00
-1.208049713172163475e+00
-6.919955944320816954e-01
-1.766022193224635328e-01
3.127216152371010138e-01
7.505671123276557166e-01
1.111525475030034960e+00
1.370972637539840111e+00
1.522373810035903441e+00
1.577305985243856457e+00
1.548135388318631733e+00
1.447228244415214471e+00
1.286950778688567887e+00
1.079669216293558387e+00
8.377559931676757943e-01
5.739177110152272610e-01
3.013596721797652811e-01
3.332810162153867356e-02
-2.169307756988721747e-01
-4.361707348212229829e-01
-6.111455507852181501e-01
-7.286410554027552555e-01
-7.820610263436401643e-01
-7.794882379909955361e-01
-7.309782898289823860e-01
-6.465863968474673262e-01
-5.363659298131835396e-01
-4.103697072171954008e-01
-2.786503804118838357e-01
-1.499779498696740820e-01
-2.874897261016528399e-02
8.157130708826589027e-02
1.775176449473926665e-01
2.556247966889645951e-01
3.124275180346400282e-01
3.444605647061763642e-01
3.493547908673474978e-01
3.305857557489002563e-01
2.935692980543834207e-01
2.437225298199695855e-01
1.864562187998234644e-01
1.271637107812833012e-01
7.123538732041445609e-02
2.363722339050960616e-02
-1.428619730033905272e-02
-4.302462366192922466e-02
-6.308208309942751890e-02
-7.496260301797515180e-02
-7.917021082274215693e-02
-7.620893391888614032e-02
-6.662487197877768608e-02
-5.157593569957484581e-02
-3.268211024127087166e-02
-1.157476409230860648e-02
1.011473425884257607e-02
3.075501632373840721e-02
4.871471361393285571e-02
6.239978505492251026e-02
7.126822276225175390e-02
7.595030514928571841e-02
7.713777701570165291e-02
7.552238316117662609e-02
7.179586838538917770e-02
6.664997748801490540e-02
6.077363945464993311e-02
5.466161587794935578e-02
4.850162443963971365e-02
4.245582592018268958e-02
3.668638110003377001e-02
3.135545075965087691e-02
2.662519567949138410e-02
2.265754331448049247e-02
1.952800822128262018e-02
1.709689749884361204e-02
1.519157623045534755e-02
1.363935813601699701e-02
1.226682014532280013e-02
1.089998782191790166e-02
9.364873507831349142e-03
7.529639040828146716e-03
5.424892263649434485e-03
3.120370247584876994e-03
6.858100639236949184e-04
-1.809051216043893818e-03
-4.294476521030387434e-03
-6.700728779745646936e-03
-8.962445379495148287e-03
-1.104071801086966252e-02
-1.290653206480858566e-02
-1.453089013301714361e-02
-1.589010077253198011e-02
-1.698393790764159139e-02
-1.781866012597290577e-02
-1.840149832500015056e-02
-1.874921083010396353e-02
-1.888395366165343189e-02
-1.882794443371324164e-02
-1.860340076034797813e-02
-1.823254025562225794e-02
-1.773758053360069073e-02
-1.714040955480678266e-02
-1.645725781957261755e-02
-1.569959738459686394e-02
-1.487875214602144003e-02
-1.400604599998856413e-02
-1.309280284263958719e-02
-1.215034657011672230e-02
-1.119004392558466988e-02
-1.022476687092340082e-02
-9.269254627770404445e-03
-8.338362729073118054e-03
-7.446946707779842842e-03
-6.609862096838572953e-03
-5.841964429197601776e-03
-5.158105823800858761e-03
-4.570324335974772050e-03
-4.076096037502177118e-03
-3.667950551287540908e-03
-3.338412286160380785e-03
-3.080005650950667744e-03
-2.885255054488082213e-03
-2.746685103694460582e-03
-2.656980258729940876e-03
-2.609272916224435451e-03
-2.596773341047341546e-03
-2.612692500282815834e-03
-2.650304594464816810e-03
-2.702996396162054161e-03
-2.764166289046034695e-03
-2.826954616459618173e-03
-2.883377049474622651e-03
-2.925142927400505716e-03
-2.943961582961964439e-03
-2.931542348883877172e-03
-2.879594557890960069e-03
-2.779827542708086709e-03
-2.624513973016492224e-03
-2.409799488441595125e-03
-2.133458129513339258e-03
-1.793269576704268221e-03
-1.387852539933990496e-03
-9.219082064163990932e-04
-4.028182685634174270e-04
1.631766534975841014e-04
7.828875671371492151e-04
1.471382939353128080e-03
2.243861722512830153e-03
3.115522868983675291e-03
4.101565331132716458e-03
5.217188061327968085e-03
6.475553909758542150e-03
7.848115594589552199e-03
9.267276311254953741e-03
1.066393599969416538e-02
1.196899459984578258e-02
1.311335205164865583e-02
1.402790829504092611e-02
1.464636275023398562e-02
1.502798592659323682e-02
1.540557516599203210e-02
1.602463411804021243e-02
1.713066643234553710e-02
1.896917575851823912e-02
2.178566574616644380e-02
2.583195961778992841e-02
3.232350225504011798e-02
4.446372692821713019e-02
6.570101853054133301e-02
9.948375098731451760e-02
1.492602982238619980e-01
2.184790341654476720e-01
3.105883530302062101e-01
4.290880489099040962e-01
5.776403060848426252e-01
7.599393006925748706e-01
9.796792088707099166e-01
1.240554460040946605e+00
1.546260650316207075e+00
1.900493711516150430e+00
2.304943492337717004e+00
2.751406791782097017e+00
3.228636025506466556e+00
3.725382769769800095e+00
4.230398600830461930e+00
4.732435094947424759e+00
5.220243828379647510e+00
5.682112376316509561e+00
6.102690107299560296e+00
6.464910225997458681e+00
6.751695830972455958e+00
6.945970314318347327e+00
7.030660756715017889e+00
6.988696756690474743e+00
6.804378713457837513e+00
6.480059698332250484e+00
6.030831070554349083e+00
5.472051389612907712e+00
4.819079214996176752e+00
4.087273106192571781e+00
3.291991622690161545e+00
2.448845954313596085e+00
1.579710550187684026e+00
7.129854829407761274e-01
-1.226240439205975030e-01
-8.984128268909734594e-01
-1.585675662464790969e+00
-2.155707347135662921e+00
-2.580070207951583150e+00
-2.846124302588780353e+00
-2.965571169163692566e+00
-2.952189380396551766e+00
-2.819757509007449148e+00
-2.582054127716360448e+00
-2.252857809243578924e+00
-1.845959752820079069e+00
-1.378336511019441657e+00
-8.743356038451759460e-01
-3.593417042827937169e-01
1.412606284978206450e-01
6.020868353261691341e-01
9.977523570323786339e-01
1.302872983511914606e+00
1.499106967352324737e+00
1.593242030923174957e+00
1.597668637128612179e+00
1.524777248872632329e+00
1.386958155578396967e+00
1.196599283919406620e+00
9.660868539936245947e-01
7.079077491141658740e-01
4.351114324489884222e-01
1.609426430982982270e-01
-1.013536863011505335e-01
-3.385326231122894325e-01
-5.373492346983732570e-01
-6.845585884225937612e-01
-7.684939997197731687e-01
-7.916597805799560073e-01
-7.640451180944041187e-01
-6.957069040708013796e-01
-5.967024196632397803e-01
-4.770985670776529686e-01
-3.469722548457169209e-01
-2.161730742605326439e-01
-9.103181776554415683e-02
2.488714121052914424e-02
1.280940018080881093e-01
2.150989631676771263e-01
2.824122244298159501e-01
3.265439847349447811e-01
3.441333897898878336e-01
3.357545013633814190e-01
3.065444437299196245e-01
2.618957814927694305e-01
2.072010792551983727e-01
1.478529016204478685e-01
8.924381319183488648e-02
3.674126907705709683e-02
-6.318222409610555618e-03
-4.009163380634175183e-02
-6.508080947113621673e-02
-8.178759376197966557e-02
-9.071383103683840210e-02
-9.236136565370095530e-02
-8.723262494820613333e-02
-7.611017622613536204e-02
-6.049814308177418887e-02
-4.200776262727630439e-02
-2.224961784247619576e-02
-2.834291707232889507e-03
1.462763279861886354e-02
2.852557269524208516e-02
3.763281814494898875e-02
4.227138252896189829e-02
4.315379614651201901e-02
4.099258930588716571e-02
3.650032424985549112e-02
3.039213057642759994e-02
2.338754528159690468e-02
1.614869965733264218e-02
8.970962361890520015e-03
2.006391806450472971e-03
-4.593283395233627164e-03
-1.067633462941064426e-02
-1.609103328232662847e-02
-2.068565074023376651e-02
-2.432757409494047673e-02
-2.708173116141115305e-02
-2.912967812969695716e-02
-3.065448208321161841e-02
-3.183925156292020942e-02
-3.286975009062499675e-02
-3.393595574146662103e-02
-3.522142574486644695e-02
-3.678533830773089708e-02
-3.857799802914659709e-02
-4.054603258345448880e-02
-4.263606964499570828e-02
-4.479473688811609622e-02
-4.696866198715676094e-02
-4.910491467223546819e-02
-5.116751954944051550e-02
-5.314239404178610487e-02
-5.501690548660877894e-02
-5.677842122124927837e-02
-5.841430858304381274e-02
-5.991193490932877896e-02
-6.125871090526633506e-02
-6.244711342671212251e-02
-6.347936248300371787e-02
-6.435878421809876349e-02
-6.508870477594889958e-02
-6.567245030050787580e-02
-6.611334693573241161e-02
-6.641471873205863352e-02
-6.657747410119366216e-02
-6.659855011199887487e-02
-6.647985312929911850e-02
-6.622402425127575654e-02
-6.583370457611152637e-02
-6.531153520198829110e-02
-6.466015722708864932e-02
-6.388272626824086087e-02
-6.298474572460244225e-02
-6.197238828152810269e-02
-6.085182667400596684e-02
-5.962923363702535978e-02
-5.831199443993782816e-02
-5.691285853417819840e-02
-5.544596575700774105e-02
-5.392478841384606980e-02
-5.236250577964643438e-02
-5.077229587457246507e-02
-4.916733671878817380e-02
-4.756080633245785699e-02
-4.596588273574477024e-02
-4.439577662184236717e-02
-4.286408967039775225e-02
-4.138468121397134714e-02
-3.997141512876537656e-02
-3.863814124375369169e-02
-3.739373358194216651e-02
-3.623477170280538229e-02
-3.515593220436494248e-02
-3.415107182425235893e-02
-3.321324857127585378e-02
-3.233548733698780875e-02
-3.151081301293982839e-02
-3.073225049068073478e-02
-2.999282466176236839e-02
-2.928560813257831061e-02
-2.860603488408416939e-02
-2.795293654656114471e-02
-2.732540835930827652e-02
-2.672254556162326211e-02
-2.614344339280510673e-02
-2.558719709215371771e-02
-2.505286572483548038e-02
-2.453293961681730223e-02
-2.400575999806842803e-02
-2.344782976784078043e-02
-2.283565182539018523e-02
-2.214572906997027205e-02
-2.135456440083862567e-02
-2.043866437798862873e-02
-1.939143965951800955e-02
-1.826476483687860392e-02
-1.713013906483997276e-02
-1.606063537638373687e-02
-1.512932680449120305e-02
-1.440928638214000398e-02
-1.397358714231139790e-02
-1.385511380059614717e-02
-1.387918380559348408e-02
-1.380429850318220728e-02
-1.338892721667271635e-02
-1.239153926937345065e-02
-1.057040279875031893e-02
-7.681181928324658063e-03
-3.237144136461631017e-03
5.231391411422200294e-03
2.116986583838491656e-02
4.803052784000644976e-02
8.926562611187893737e-02
1.483274093496197987e-01
2.286681262487714472e-01
3.337496823016736225e-01
4.671687975447550989e-01
6.326212344369611662e-01
8.338050438861399627e-01
1.074418276800233274e+00
1.358159937999484868e+00
1.688732809862662165e+00
2.069583632415447294e+00
2.497291050317922867e+00
2.960987301861407683e+00
3.449431748794914210e+00
3.951383752867492216e+00
4.455602675827576853e+00
4.950847879424216558e+00
5.425846803026954213e+00
5.867218807480218068e+00
6.258199809265740043e+00
6.581720692435750308e+00
6.820712341042551863e+00
6.958105639138170595e+00
6.976831470774945032e+00
6.859848026891387285e+00
6.598696082724079481e+00
6.205662778262669654e+00
5.696107909889887466e+00
5.085391273989106509e+00
4.388872666943101741e+00
3.621911885134828868e+00
2.799868751586525040e+00
1.940483621675374026e+00
1.070386719991727187e+00
2.182785223836230248e-01
-5.871420605591689545e-01
-1.317176118819197272e+00
-1.943124742378885772e+00
-2.436289021219911533e+00
-2.772699961070185903e+00
-2.956080711524381233e+00
-3.000202030734061331e+00
-2.918848784907300598e+00
-2.725805840252250700e+00
-2.434858072052452194e+00
-2.059791010649537846e+00
-1.615130312950505242e+00
-1.122389335196841031e+00
-6.069290310966832802e-01
-9.415041266628915162e-02
3.905455080780779742e-01
8.217577191195665209e-01
1.174085208441930206e+00
1.423334758773952435e+00
1.565161313085422945e+00
1.611461488570752332e+00
1.574609295287695776e+00
1.466978743293868126e+00
1.300944724236955397e+00
1.088887818923635509e+00
8.432020906639379199e-01
5.766535115888129504e-01
3.024568956445495838e-01
3.385383877694007893e-02
-2.159140630683179518e-01
-4.336052139452245546e-01
-6.059780179080931362e-01
-7.198755072049898285e-01
-7.699336843107764672e-01
-7.647590683281836332e-01
-7.144118877559028080e-01
-6.289523710926974154e-01
-5.184407468372741468e-01
-3.929372434883517395e-01
-2.624996438090220208e-01
-1.356087877675588305e-01
-1.645882307129594574e-02
9.147759589177924255e-02
1.847278147335481568e-01
2.598191790660288047e-01
3.132790345012097522e-01
3.416347266510164626e-01
3.428150026896902847e-01
3.206670494258760939e-01
2.805982341466657370e-01
2.280148957058431014e-01
1.683233654149728920e-01
1.069299745856069073e-01
4.924105452937326682e-02
9.474229090733650438e-05
-3.945006868121148785e-02
-6.987689486203851885e-02
-9.167381390126065621e-02
-1.053289034485525855e-01
-1.113302411535732062e-01
-1.101654665636599972e-01
-1.023806068317403006e-01
-8.917822074811503075e-02
-7.216503019351704074e-02
-5.295365989666703244e-02
-3.315673458628475012e-02
-1.438687899111226395e-02
1.743282160133105205e-03
1.368066315032929331e-02
2.103644608655204015e-02
2.448237774936708883e-02
2.472894669817628233e-02
2.248664149238279938e-02
1.846562336682849859e-02
1.337245612584808847e-02
7.905986842069541096e-03
2.534269588528642939e-03
-2.584821537119938104e-03
-7.315224101820197618e-03
-1.152087567251084722e-02
-1.506571381613874480e-02
-1.781367609964621193e-02
-1.962945539466229294e-02
-2.048068034249584529e-02
-2.054142707919826699e-02
-2.001042886887866717e-02
-1.908641897564676559e-02
-1.796813066361378428e-02
-1.685429719688810377e-02
-1.594362261114373736e-02
-1.538237930896950087e-02
-1.515622586472408807e-02
-1.522017073594093134e-02
-1.552922238015757260e-02
-1.603838925490826475e-02
-1.670267981772761631e-02
-1.747710252615214399e-02
-1.832232160036148527e-02
-1.922562093634234623e-02
-2.017637783775976662e-02
-2.115940147054403211e-02
-2.215938484529802674e-02
-2.316102097262590781e-02
-2.414900286313047262e-02
-2.510934581453725528e-02
-2.603808671831693566e-02
-2.693585351950347415e-02
-2.780329803531663563e-02
-2.864107208297593868e-02
-2.944982747970125922e-02
-3.023040377474171120e-02
-3.098546801608145773e-02
-3.171311733825103035e-02
-3.240727469024724111e-02
-3.306178073747979840e-02
-3.367047614535838979e-02
-3.422720157929263346e-02
-3.472579770469191862e-02
-3.516017647233410370e-02
-3.552593047868756598e-02
-3.582035611125988783e-02
-3.604082567226641470e-02
-3.618471146392312349e-02
-3.624956903277148229e-02
-3.623676759183025453e-02
-3.615127245324589039e-02
-3.599779063202065976e-02
-3.578043063973448262e-02
-3.550325184187492350e-02
-3.517031360392940814e-02
-3.478567529138588965e-02
-3.435339626973090560e-02
-3.387753678279969982e-02
-3.336234977240841448e-02
-3.281252134592251013e-02
-3.223279672486938779e-02
-3.162792113077682321e-02
-3.100263978517065269e-02
-3.036169790957842299e-02
-2.970984069317759990e-02
-2.905148885859955288e-02
-2.838994098984482309e-02
-2.772825325749413844e-02
-2.706948183212652334e-02
-2.641668288432286182e-02
-2.577291258466384016e-02
-2.514122710372856256e-02
-2.452541992500874984e-02
-2.393319126702790622e-02
-2.337104582970899250e-02
-2.284253173977008125e-02
-2.235103028711095050e-02
-2.189992276162979964e-02
-2.149259045322665304e-02
-2.113081854424448194e-02
-2.080255525889151275e-02
-2.048864754395453985e-02
-2.016988434928923893e-02
-1.982705462475115032e-02
-1.944094732019483254e-02
-1.899233313732184500e-02
-1.846386678024843075e-02
-1.788183064374685577e-02
-1.730715515784577926e-02
-1.680165333024701349e-02
-1.642713816865210355e-02
-1.624542268076283741e-02
-1.631831987428105507e-02
-1.670274376206295347e-02
-1.731410429369048543e-02
-1.790815651338937761e-02
-1.823210971919169560e-02
-1.803317320912853697e-02
-1.705869480571996569e-02
-1.506288199339415705e-02
-1.179464611327515552e-02
-5.876645443992047774e-03
5.952994825949128183e-03
2.713548927850240738e-02
6.111205249559904101e-02
1.113238990591884775e-01
1.812122435512484031e-01
2.742184570988181469e-01
3.938466264592351274e-01
5.437591682694083994e-01
7.276430993233732325e-01
9.491854364153395895e-01
1.212073196339576997e+00
1.519993395890029575e+00
1.876633050756187471e+00
2.283131034273384596e+00
2.730664181908298183e+00
3.207975154863486278e+00
3.703806614342050274e+00
4.206901221547124869e+00
4.706001637681218597e+00
5.189850523947464822e+00
5.646575007903087418e+00
6.060524562559450601e+00
6.414631061365756892e+00
6.691850062943028199e+00
6.875139859110662499e+00
6.947458741687739803e+00
6.891765002493344561e+00
6.692953014181354909e+00
6.355207552781213742e+00
5.893784277117255499e+00
5.324070391340042008e+00
4.661453099599063954e+00
3.921319606044135764e+00
3.119057114825069643e+00
2.270446333256719296e+00
1.398160893510169034e+00
5.307454513443748967e-01
-3.030677655495594425e-01
-1.074546529479823320e+00
-1.754958612754611513e+00
-2.315571787682114913e+00
-2.728151803343714654e+00
-2.982438453079587770e+00
-3.090749488863204331e+00
-3.066836459228934331e+00
-2.924450912710879980e+00
-2.677344481339788640e+00
-2.339286348558204498e+00
-1.924120425353317954e+00
-1.449463055037297332e+00
-9.399705244271661098e-01
-4.210706756176373355e-01
8.180864929621455006e-02
5.432396082193104991e-01
9.377943590565799292e-01
1.240054722071105564e+00
1.433299304311777433e+00
1.525516445629161222e+00
1.529053326002304480e+00
1.456257125410256981e+00
1.319475023832066274e+00
1.131054201246780355e+00
9.033418376332498223e-01
6.488143845667029286e-01
3.805198538596250568e-01
1.116641705900067727e-01
-1.445467348480576342e-01
-3.749069320604744848e-01
-5.662104906532889892e-01
-7.052514802320820619e-01
-7.809490444849499502e-01
-7.970546769886088789e-01
-7.636281451919504359e-01
-6.907171915373184756e-01
-5.883633982369997906e-01
-4.666083475031792549e-01
-3.354936215483456108e-01
-2.047317546755565709e-01
-8.024517387159128823e-02
3.447237199690095927e-02
1.359668748283223982e-01
2.207843265210756023e-01
2.854707189736080397e-01
3.265720440842146965e-01
3.408430091856836097e-01
3.294068470632875445e-01
2.975279763055381776e-01
2.506340239505485679e-01
1.941526170363829518e-01
1.335113826012491178e-01
7.413794768321710360e-02
2.140945501671418991e-02
-2.163099023530228732e-02
-5.520660280176259427e-02
-7.978416460580110836e-02
-9.583045757056105063e-02
-1.038122640806257158e-01
-1.042043978259418191e-01
-9.751224521031282011e-02
-8.458292534188521783e-02
-6.696527822737985414e-02
-4.629625899520040111e-02
-2.421282277380020637e-02
-2.351924691585811217e-03
1.764948012302269831e-02
3.415459571719828280e-02
4.600612560388366717e-02
5.358314876879827215e-02
5.757182337165116931e-02
5.865830757214790525e-02
5.752875953000094467e-02
5.486933740491890810e-02
5.136619935661050629e-02
4.763039080873044534e-02
4.389715389007973340e-02
4.028444333303927288e-02
3.691017493504501756e-02
3.389226449352128467e-02
3.134862780589633274e-02
2.939718066959838214e-02
2.812967061405094449e-02
2.742944937707906400e-02
2.708700771700715826e-02
2.692268089407187301e-02
2.676539276798546932e-02
2.644406769195715295e-02
2.578763001919554335e-02
2.463507523433029062e-02
2.296045616007160589e-02
2.083433450736086115e-02
1.832935943598255901e-02
1.551818010572237824e-02
1.247344567635969709e-02
9.267805307680045124e-03
5.973182088950792536e-03
2.643833614353668579e-03
-6.839723833163189291e-04
-3.974750824275971248e-03
-7.193016628743656958e-03
-1.030328471693463602e-02
-1.327007000906910844e-02
-1.605798369982879351e-02
-1.863752060718746467e-02
-2.098835731902222099e-02
-2.309096756216601556e-02
-2.492582506345409829e-02
-2.647340354971950208e-02
-2.771949574013723300e-02
-2.868050786799728261e-02
-2.938082902987713615e-02
-2.983792775993267601e-02
-3.006827910970178222e-02
-3.008835813071973272e-02
-2.991463987452180201e-02
-2.956359939264594644e-02
-2.905171175849002169e-02
-2.839610146848594793e-02
-2.761624357766917850e-02
-2.673214477437813041e-02
-2.576381174695558177e-02
-2.473125118374553191e-02
-2.365446977308934690e-02
-2.255347420332838929e-02
-2.144814949923079181e-02
-2.035769098959636439e-02
-1.930105125925241777e-02
-1.829718262332580628e-02
-1.736503739695057988e-02
-1.652356789525677438e-02
-1.579172643337443949e-02
-1.518851088889477431e-02
-1.473333486741083311e-02
-1.444315988083914870e-02
-1.431514040714723310e-02
-1.433753574845256923e-02
-1.449856289019905119e-02
-1.478643881783416568e-02
-1.518932351256148741e-02
-1.569447931121796536e-02
-1.628845394664092325e-02
-1.695777535332866279e-02
-1.768897146577964527e-02
-1.846857021849343528e-02
-1.928309954596812287e-02
-2.011917269473145406e-02
-2.096668163018220593e-02
-2.182103865393232242e-02
-2.267841947533532493e-02
-2.353499980374465853e-02
-2.438695534851395216e-02
-2.523046181899658846e-02
-2.606160328050009106e-02
-2.686875101579722439e-02
-2.762683720898681874e-02
-2.830944522937856728e-02
-2.889015844628136861e-02
-2.934256022900489508e-02
-2.964095752373708051e-02
-2.976668929290538640e-02
-2.972572949237387713e-02
-2.957873493330787085e-02
-2.939526507369603220e-02
-2.924487937152731032e-02
-2.919713728479069251e-02
-2.932159827147363951e-02
-2.968782178956530515e-02
-3.031412385275785576e-02
-3.100910289606961801e-02
-3.152771469107520236e-02
-3.162491498609443924e-02
-3.105565952944530986e-02
-2.957490406944680850e-02
-2.693760435441760678e-02
-2.257785003190497172e-02
-1.386459391170837691e-02
2.651227092347524517e-03
3.042071792460654053e-02
7.289498352941223280e-02
1.335251288511038192e-01
2.157622588340207814e-01
3.230712280412876836e-01
4.590613743903143584e-01
6.274287548007874138e-01
8.318746181842402443e-01
1.076103012964915173e+00
1.363818044100611804e+00
1.698723816549134291e+00
2.084118493869985489e+00
2.515716286844959182e+00
2.982509657675395331e+00
3.473258355727864011e+00
3.976722130368936181e+00
4.481660730965186801e+00
4.976833906883189051e+00
5.450940385609130523e+00
5.890271503890225802e+00
6.277970320828084816e+00
6.596967086390520763e+00
6.830192044820497799e+00
6.960575440360980082e+00
6.971047517254880255e+00
6.844621768201561096e+00
6.574504817840251647e+00
6.173764779324157459e+00
5.657760809226964227e+00
5.041852064122368304e+00
4.341397700584061603e+00
3.571756451633309126e+00
2.748281772617708008e+00
1.889273251677732191e+00
1.021801001872030268e+00
1.745562382720672323e-01
-6.237698240506964753e-01
-1.344485970024796861e+00
-1.958900984579221793e+00
-2.438323652641484429e+00
-2.760160051527983605e+00
-2.930040798878382979e+00
-2.961757642162851756e+00
-2.869103142535834650e+00
-2.665869861151578757e+00
-2.365850359164864081e+00
-1.982837197730016987e+00
-1.531623977975908435e+00
-1.034339532180392096e+00
-5.163758427697850983e-01
-3.139766115782705036e-03
4.799618414102936881e-01
9.075221234359486244e-01
1.254134223589893571e+00
1.496152042238191759e+00
1.631372057889498572e+00
1.671901816435783061e+00
1.630116483554465923e+00
1.518398354148883467e+00
1.349130065677602408e+00
1.134694255598932333e+00
8.874920207403507177e-01
6.203387506049155009e-01
3.464584993643410327e-01
7.909265489183567310e-02
-1.685173949387380743e-01
-3.831302622541823411e-01
-5.515045591810777692e-01
-6.605749036614249059e-01
-7.062663857853448413e-01
-6.976026403613074800e-01
-6.446389879171101622e-01
-5.574305023860736119e-01
-4.460322577013967615e-01
-3.204993277963048559e-01
-1.908769324968818681e-01
-6.531516837034792577e-02
5.217264296942928509e-02
1.581190016997190972e-01
2.490564079980854550e-01
3.215173620419924383e-01
3.720343513077833952e-01
3.971396692619592050e-01
3.951224396643447379e-01
3.701632077286739486e-01
3.276756302629783013e-01
2.730733640752414093e-01
2.117700659734559065e-01
1.491793927656159813e-01
9.071500125971128370e-02
4.104928468122123753e-02
9.702405647480510931e-04
-3.000217636222583112e-02
-5.234871825298793857e-02
-6.655013726079098135e-02
-7.308718553889148595e-02
-7.244061524054207224e-02
-6.517420525347743243e-02
-5.254689495985459535e-02
-3.616423429589896849e-02
-1.763431649815667968e-02
1.434765196822489902e-03
1.943491755249256159e-02
3.475804733230748039e-02
4.588523270128869180e-02
5.256564317124415991e-02
5.549176658003511509e-02
5.537284372558361201e-02
5.290891205010136294e-02
4.879917159688564737e-02
4.374282240922622300e-02
3.842958814370121823e-02
3.328977429656273385e-02
2.846890201793288860e-02
2.409792898882414172e-02
2.030781289025500660e-02
1.722951140324094702e-02
1.499398220879404747e-02
1.373042997090885391e-02
1.344803172888153417e-02
1.395997127396191549e-02
1.505826032394987427e-02
1.653413881524512519e-02
1.817884668424466985e-02
1.978362386735087880e-02
2.113989889856164248e-02
2.210287660612181987e-02
2.268402776801068527e-02
2.291831712720220765e-02
2.284070942666916598e-02
2.248616940938556394e-02
2.188971655160013713e-02
2.109389742864219153e-02
2.014922559493122906e-02
1.908088058581811075e-02
1.790761429892543527e-02
1.664817863187521146e-02
1.532132548228992523e-02
1.394580674779235911e-02
1.254037432600452195e-02
1.112203225226171543e-02
9.697399784182341234e-03
8.269275937719091155e-03
6.840453803877924975e-03
5.413726473664772117e-03
3.991887038085458785e-03
2.577728588145903558e-03
1.174723831168689126e-03
-2.071232400552745702e-04
-1.554165380694676668e-03
-2.852715781823082861e-03
-4.089087634510684376e-03
-5.249594129828964208e-03
-6.320548458849432026e-03
-7.288373954418126896e-03
-8.141339824793442786e-03
-8.869257949820534906e-03
-9.467203435559061464e-03
-9.943390244865289371e-03
-1.030806833280954564e-02
-1.057148765446284770e-02
-1.074388483994679136e-02
-1.083504318315022842e-02
-1.085419197779722775e-02
-1.081052680574708796e-02
-1.071324324885941301e-02
-1.057153688899380509e-02
-1.039460330800956282e-02
-1.019164045331944629e-02
-9.972073483536720781e-03
-9.745608785591702156e-03
-9.520597542764680857e-03
-9.304546066239599220e-03
-9.104948961826080447e-03
-8.929300835333732131e-03
-8.785095731670461774e-03
-8.679428227423163084e-03
-8.618291927326438007e-03
-8.607492386242976412e-03
-8.652835159035735316e-03
-8.760125800567425403e-03
-8.935168876420179762e-03
-9.181058323180706776e-03
-9.493212334805935584e-03
-9.869383385631468400e-03
-1.030840666855416601e-02
-1.080911738858770545e-02
-1.137035075074533698e-02
-1.199094196004028313e-02
-1.266972622148626951e-02
-1.340339810406883728e-02
-1.417419874946127499e-02
-1.495839004659704936e-02
-1.573221486044595538e-02
-1.647191605597681657e-02
-1.715373649815936027e-02
-1.775391905196257655e-02
-1.825311835741751793e-02
-1.868092482016662018e-02
-1.909741861470576341e-02
-1.956314161843257168e-02
-2.013863570874508541e-02
-2.088444276304140049e-02
-2.186110465871939426e-02
-2.312131359756468621e-02
-2.456100245822919262e-02
-2.593151921121989584e-02
-2.698045727793933757e-02
-2.746209786089943289e-02
-2.713241096746470127e-02
-2.574736660506026648e-02
-2.303308596280596865e-02
-1.742385475193401062e-02
-5.595538339984884590e-03
1.590195395827381092e-02
5.051871282807397084e-02
1.017048289546981510e-01
1.729103930232965824e-01
2.675860176420040704e-01
3.892571249938112654e-01
5.416011480012855595e-01
7.283132237350539162e-01
9.530874266041812204e-01
1.219617748916849154e+00
1.531598182980575373e+00
1.892721199962414946e+00
2.303505361861454936e+00
2.754609337256549662e+00
3.234782762864417460e+00
3.732775275401778003e+00
4.237336511585758636e+00
4.737216108132250802e+00
5.221164951412606392e+00
5.677143443227305575e+00
6.089251413489256137e+00
6.440420017554977505e+00
6.713580157675535176e+00
6.891662736101347164e+00
6.957598655083549133e+00
6.894318816873016509e+00
6.687392852839582957e+00
6.342699923723446709e+00
5.875547919972837541e+00
5.301296656168855925e+00
4.635305946894056284e+00
3.892935606729619469e+00
3.089545450257148662e+00
2.241074879237677564e+00
1.370933578500721950e+00
5.077230978270536044e-01
-3.198501041828858971e-01
-1.083079568930789938e+00
-1.753258837817641691e+00
-2.301681452244426218e+00
-2.700473933958512873e+00
-2.941852794609105093e+00
-3.038656046586089232e+00
-3.004662116972648622e+00
-2.853656744198507234e+00
-2.599428625735769938e+00
-2.255766467410236675e+00
-1.836535917181447042e+00
-1.359965720797082556e+00
-8.509055938006434561e-01
-3.347585372360217804e-01
1.630724478541415445e-01
6.171843604268013594e-01
1.002174199438909730e+00
1.292683919170192874e+00
1.473853874494359451e+00
1.554741897688229013e+00
1.547720797637145873e+00
1.465166233096900195e+00
1.319454507015821232e+00
1.122961922342242236e+00
8.880647940932553386e-01
6.273021804648256650e-01
3.537840248150050937e-01
8.074538050696772329e-02
-1.785786990959088161e-01
-4.109531606302510021e-01
-6.031429507326816486e-01
-7.419122875587649268e-01
-8.168047084451374173e-01
-8.326523572977350129e-01
-7.995074053338439013e-01
-7.274265018343619715e-01
-6.264662960801826719e-01
-5.066834373522003387e-01
-3.781345749312053917e-01
-2.504197610650840122e-01
-1.291172093278500077e-01
-1.771389652516590363e-02
8.032110217276441921e-02
1.615187115957368580e-01
2.224098565735444510e-01
2.595254619360051196e-01
2.697125736573939281e-01
2.545914730973458662e-01
2.194790702479200717e-01
1.697886554016821981e-01
1.109335188511984260e-01
4.832695088898335267e-02
-1.261775819229461748e-02
-6.657624338616385806e-02
-1.108572141713075332e-01
-1.457774481636372743e-01
-1.718181609644514884e-01
-1.894616593112133929e-01
-1.991909373085604118e-01
-2.014889997943583588e-01
-1.968439391634094759e-01
-1.861365648012637819e-01
-1.709128552540012669e-01
-1.527831564427963307e-01
-1.333578142888205975e-01
-1.142471747132306897e-01
-9.706158363723313420e-02
-8.341003868970638113e-02
-7.431565027710926308e-02
-6.930211375957849584e-02
-6.765704192741785195e-02
-6.867190835760081380e-02
-7.164043557555185848e-02
-7.585637408062052833e-02
-8.061347437437349495e-02
-8.530100888455180441e-02
-8.968707363949944555e-02
-9.363366150084863337e-02
-9.700276533023496905e-02
-9.965637798928167479e-02
-1.014564923396251428e-01
-1.022651706162325813e-01
-1.019803043011525551e-01
-1.007172034160555701e-01
-9.867445625315371394e-02
-9.605082423629866806e-02
-9.304506878934386271e-02
-8.985595133614319996e-02
-8.668223330054701525e-02
-8.370841618346866464e-02
-8.097455138901898941e-02
-7.843671377375824316e-02
-7.604993995496653336e-02
-7.376926654992277399e-02
-7.154973017590247897e-02
-6.934636745018503412e-02
-6.711538658706889260e-02
-6.483392464345691386e-02
-6.249716647612053172e-02
-6.010088836533441364e-02
-5.764086659137319935e-02
-5.511287743450733051e-02
-5.251269717501135664e-02
-4.983628274983122053e-02
-4.708629291744956258e-02
-4.427391094468080546e-02
-4.141092558667937296e-02
-3.851027692332915919e-02
-3.558601202974816941e-02
-3.265222277913398807e-02
-2.972296939239131228e-02
-2.680881287438087457e-02
-2.391368921913971518e-02
-2.104079658193902524e-02
-1.819333311805455475e-02
-1.537449698275913240e-02
-1.258748633132509599e-02
-9.835500114952397052e-03
-7.122540362960507257e-03
-4.454922731176245466e-03
-1.839331238803781259e-03
7.196124653057859883e-04
3.220142079066843407e-03
5.660700949466611516e-03
8.039732423492984559e-03
1.035583623134950920e-02
1.260831351487127529e-02
1.479666198451262335e-02
1.692037936047116262e-02
1.897896336294603234e-02
2.097191171213479838e-02
2.289866074781070002e-02
2.475662504178076720e-02
2.654045928157938022e-02
2.824449518331958314e-02
2.986306371748514293e-02
3.139049585455893493e-02
3.282112256502391079e-02
3.414927481936366055e-02
3.536936616587259274e-02
3.647677791052148649e-02
3.746751943838196736e-02
3.833761077088320562e-02
3.908307192945519037e-02
3.969992293552788987e-02
4.018418381053136257e-02
4.053173579565009371e-02
4.073549213472896224e-02
4.078551740329269121e-02
4.067176127502367122e-02
4.038417342360412637e-02
3.991270352271621136e-02
3.924730124604226128e-02
3.837810241840011044e-02
3.730411728288760692e-02
3.603693288760550367e-02
3.458926909754247297e-02
3.298305420711510061e-02
3.125370663296556800e-02
2.943771831456427901e-02
2.757143502374571897e-02
2.566638114206702681e-02
2.368146058251069733e-02
2.156886627211735200e-02
1.928079113792799740e-02
1.676942810698325501e-02
1.398697010632590255e-02
1.088562773373194514e-02
7.481700954235073753e-03
3.999754994963993469e-03
7.065864545699939922e-04
-2.131429160191157871e-03
-4.249379774622415867e-03
-5.382671019796733160e-03
-5.266708526786899845e-03
-3.219620007688196728e-03
3.558563306813856270e-03
1.853823179395179543e-02
4.519004051528718174e-02
8.698464453241686045e-02
1.473926989069271054e-01
2.298847435801120442e-01
3.379390924777539440e-01
4.751664704195881495e-01
6.452493632553456537e-01
8.518707413432516917e-01
1.098713575041929902e+00
1.389460834709878245e+00
1.727795490705597903e+00
2.116796936331096557e+00
2.551301665616093839e+00
3.020181274685469042e+00
3.512174378306827993e+00
4.016019591247442122e+00
4.520455528274580637e+00
5.014220804155516298e+00
5.485950097788342639e+00
5.921578183698438025e+00
6.304155976122510552e+00
6.616593612131581814e+00
6.841801228796301260e+00
6.962688963187317448e+00
6.962166952375286044e+00
6.823332631364396050e+00
6.541136144254648954e+00
6.129261864671645021e+00
5.603048880546630528e+00
4.977845110732042500e+00
4.269018512794173326e+00
3.491939808480774676e+00
2.661992119867537809e+00
1.798138872515917086e+00
9.278588445291803266e-01
7.986940167248991751e-02
-7.171120902889929205e-01
-1.434368265590105551e+00
-2.043181758465686393e+00
-2.514835368769512414e+00
-2.828316891913138953e+00
-2.990902390862662408e+00
-3.016358276078827227e+00
-2.918450907030058605e+00
-2.710946148803683453e+00
-2.407609588785249777e+00
-2.022206811277190042e+00
-1.569822022374038006e+00
-1.073124790254866179e+00
-5.574916399466843808e-01
-4.830245096866769838e-02
4.290628971600138342e-01
8.492245249204966040e-01
1.186802544804412829e+00
1.418870604524016032e+00
1.545301372865108380e+00
1.578335080738448859e+00
1.530334272538767415e+00
1.413661492660799102e+00
1.240679285499115325e+00
1.023750195448739797e+00
7.752650490838782771e-01
5.080687145974179808e-01
2.353720681460716169e-01
-2.960359546038245776e-02
-2.736369814123539856e-01
-4.835067948996585874e-01
-6.459917411127261699e-01
-7.481874428728636506e-01
-7.873679046133544857e-01
-7.729085221474532030e-01
-7.148898251098937395e-01
-6.233923431353256550e-01
-5.084966058586372073e-01
-3.802831429145011044e-01
-2.488070589140876920e-01
-1.218953648136222728e-01
-3.442281422544503020e-03
1.030592359562096660e-01
1.941227522333935640e-01
2.662854263305173275e-01
3.160897522230102230e-01
3.400819741260757700e-01
3.369654346646167031e-01
3.112112411570521764e-01
2.682442530415432014e-01
2.134893297563605352e-01
1.523713307396762640e-01
9.031511542968996553e-02
3.274554326460120401e-02
-1.585885459083796051e-02
-5.494825328985862567e-02
-8.499220048573702391e-02
-1.064602555266854073e-01
-1.198223851116802935e-01
-1.255491002819585644e-01
-1.241109500261521614e-01
-1.160894073618702338e-01
-1.027906027935602262e-01
-8.581164072758158678e-02
-6.675041123584955771e-02
-4.720480439028842956e-02
-2.877271026282491109e-02
-1.305201892538339868e-02
-1.518165370126223213e-03
5.691431211883320185e-03
9.256953515631272111e-03
9.870098100821771830e-03
8.222561527151551336e-03
5.006040354316707713e-03
9.122311420142886762e-04
-3.382204462362901204e-03
-7.487350506761332805e-03
-1.127062236606886717e-02
-1.460856584287348325e-02
-1.737772673975934712e-02
-1.945465085931057450e-02
-2.071588400411111114e-02
-2.104135257685349827e-02
-2.044820901077034833e-02
-1.913530026049161184e-02
-1.731396782576801255e-02
-1.519555320635020135e-02
-1.299139790198876494e-02
-1.091284341243438372e-02
-9.170640843463830766e-03
-7.899694449134712568e-03
-7.085169486519937720e-03
-6.694682648795287870e-03
-6.692632071341735045e-03
-7.024499143994965278e-03
-7.628876644721714964e-03
-8.444353300455429562e-03
-9.418417081486848627e-03
-1.052536315442506934e-02
-1.174451402699902038e-02
-1.305519220693987861e-02
-1.443672020197667681e-02
-1.586842051983903060e-02
-1.732961566825676897e-02
-1.880188431780329544e-02
-2.027740007690593746e-02
-2.175144385525457080e-02
-2.321929686348605387e-02
-2.467567960032104185e-02
-2.611344016988979139e-02
-2.752503630866914852e-02
-2.890200344766588603e-02
-3.022901451448317678e-02
-3.148764851437510504e-02
-3.265946946589682459e-02
-3.372604138760307985e-02
-3.466892829804964909e-02
-3.546969421579115878e-02
-3.611193097362213472e-02
-3.659535372032794720e-02
-3.692749039719670640e-02
-3.711592777883268579e-02
-3.716825263984110256e-02
-3.709205175482615385e-02
-3.689491189839214785e-02
-3.658439781615624442e-02
-3.616756871919508953e-02
-3.565097891225033067e-02
-3.504116079671578537e-02
-3.434464677398425120e-02
-3.356796924544862976e-02
-3.271766061250263452e-02
-3.180025825201186762e-02
-3.082256198644994089e-02
-2.979175893587633281e-02
-2.871506735772176924e-02
-2.759970550941966833e-02
-2.645289164840307350e-02
-2.528184403210457371e-02
-2.409377856125928530e-02
-2.289543039748767952e-02
-2.169247123710517713e-02
-2.049043028659764190e-02
-1.929412579500539709e-02
-1.810134535102607412e-02
-1.690586529299576216e-02
-1.570141532649025826e-02
-1.448291027994723888e-02
-1.324929444418436811e-02
-1.200036771020971012e-02
-1.073592996903017897e-02
-9.455781111654177132e-03
-8.159721029088906619e-03
-6.847549612341459306e-03
-5.516269998103654273e-03
-4.148015492096384163e-03
-2.719996810393822493e-03
-1.209421503960249637e-03
4.060595775560361552e-04
2.144690150065181079e-03
4.022490547450469599e-03
6.049366545203644849e-03
8.183400520864247962e-03
1.035649370869919442e-02
1.250034552245667466e-02
1.454665537588445412e-02
1.642712268273373646e-02
1.807344685675238774e-02
1.942879946104108385e-02
2.060297033236048805e-02
2.183147072810353098e-02
2.335290162356310276e-02
2.540586399403622214e-02
2.822895881481606375e-02
3.206078706119575711e-02
3.719178614509763975e-02
4.536623883582653616e-02
5.994442608629588914e-02
8.437100956446264011e-02
1.220906509382788802e-01
1.765480118756976580e-01
2.511877540447435275e-01
3.494557687048101546e-01
4.748852893263083019e-01
6.311533668808347874e-01
8.219504652485551954e-01
1.050967048309632723e+00
1.321893579944232178e+00
1.638420524032793812e+00
2.004227743469435996e+00
2.419129000786077288e+00
2.873335837730070175e+00
3.355594362590351043e+00
3.854651241374083881e+00
4.359263311935790419e+00
4.858196296429039052e+00
5.340216213425992287e+00
5.793078262843592618e+00
6.200653024023323745e+00
6.545878040150748589e+00
6.811690854411426521e+00
6.981029009991013723e+00
7.036830050074783571e+00
6.962031517848475737e+00
6.743064583445676163e+00
6.387425676966008048e+00
5.910467847293386257e+00
5.327557549944102355e+00
4.654061351616953779e+00
3.905350073479125772e+00
3.096800024506066062e+00
2.244604109592096997e+00
1.372928892735374440e+00
5.104466929756725779e-01
-3.141191738203458206e-01
-1.072045391786596413e+00
-1.734608645055169651e+00
-2.273085617760047583e+00
-2.660045841727358695e+00
-2.890165455482963885e+00
-2.976672616978569330e+00
-2.933370536918829430e+00
-2.774062426008571780e+00
-2.512551494952553366e+00
-2.162640954455516518e+00
-1.738275891147413876e+00
-1.258358781823515793e+00
-7.479265009719311408e-01
-2.323965545142388511e-01
2.628135516267136595e-01
7.122863115293628367e-01
1.090604219271711584e+00
1.372473388242688053e+00
1.544995061892575183e+00
1.618075361233675125e+00
1.604071802418006953e+00
1.515341901597804908e+00
1.364243174925203750e+00
1.163133138552334023e+00
9.243695626118521025e-01
6.605108573430497065e-01
3.846761081686619344e-01
1.100815816563231603e-01
-1.500558185393993105e-01
-3.824931005069029388e-01
-5.739525978147520524e-01
-7.111542459953065221e-01
-7.843883464835256225e-01
-7.994621876978340591e-01
-7.663974475598772651e-01
-6.952158860465649237e-01
-5.959392631347707470e-01
-4.785893388013687799e-01
-3.531878730232372310e-01
-2.291431618555134497e-01
-1.116586070491235316e-01
-4.174416778447070930e-03
8.987522309033141310e-02
1.670561260942942383e-01
2.239322717785155736e-01
2.570617541227017133e-01
2.634566348149581239e-01
2.452644979478013632e-01
2.078737720027411529e-01
1.567237381663790785e-01
9.725367762531186844e-02
3.490287156614067798e-02
-2.488939882458006403e-02
-7.682734709201895218e-02
-1.185598105952649500e-01
-1.505031479142061868e-01
-1.731819852991085540e-01
-1.871209490002381237e-01
-1.928446652678590945e-01
-1.908777603522355260e-01
-1.817549684557728806e-01
-1.664617046671910683e-01
-1.466046134751054497e-01
-1.238356622130738216e-01
-9.980681821465567372e-02
-7.617004881340995459e-02
-5.457732134288516973e-02
-3.667596625087358314e-02
-2.341348617113178307e-02
-1.429633321784439318e-02
-8.653361436438987420e-03
-5.813424872345700212e-03
-5.105377570997944592e-03
-5.858073577817642791e-03
-7.400415567058931526e-03
-9.180440593430629070e-03
-1.102151615144938632e-02
-1.282073864882751074e-02
-1.447508462461640638e-02
-1.586382557289428563e-02
-1.682997493801244304e-02
-1.721210658434783533e-02
-1.689387457728870612e-02
-1.598060701569300676e-02
-1.464565541848043828e-02
-1.306238934718794223e-02
-1.140417836335475867e-02
-9.844392028522726268e-03
-8.556399904231242956e-03
-7.694097716800503070e-03
-7.259160521361169259e-03
-7.181650159789451128e-03
-7.391211387046768728e-03
-7.817488958101971933e-03
-8.389882811910606003e-03
-9.035625918180677577e-03
-9.682549806045850221e-03
-1.028117596385042486e-02
-1.079800285796720868e-02
-1.119986202314062970e-02
-1.145358499411459896e-02
-1.152600330563053124e-02
-1.138394849243409140e-02
-1.099457941455657395e-02
-1.034294146779878194e-02
-9.448539905866103206e-03
-8.335462274191955678e-03
-7.027796118207869924e-03
-5.549628983347304652e-03
-3.925048415044184343e-03
-2.178072772043351639e-03
-3.286626254597699867e-04
1.609457891698729730e-03
3.623094951921600887e-03
5.699054727699707189e-03
7.824143391522471111e-03
9.985167115879409888e-03
1.216892817476608775e-02
1.436125803755822217e-02
1.654574660756395407e-02
1.870566842046655562e-02
2.082429801194951927e-02
2.288490991769639646e-02
2.487077867339155743e-02
2.676517882521077182e-02
2.855158202707072657e-02
3.021416126915289074e-02
3.173724546035140703e-02
3.310516502843878495e-02
3.430761853088200308e-02
3.535171562235121107e-02
3.624808965565931573e-02
3.700729329804770817e-02
3.763942977042826488e-02
3.815444672018267896e-02
3.856229164408414567e-02
3.887291203890668595e-02
3.909625540142344646e-02
3.924226922840792081e-02
3.932101585944743072e-02
3.934358550156884932e-02
3.932160984879282117e-02
3.926672544883941240e-02
3.919056884942896668e-02
3.910478269880490743e-02
3.902122570119657963e-02
3.895181467859112207e-02
3.890523751504969263e-02
3.888763669233474135e-02
3.890508645527909065e-02
3.896366104871562541e-02
3.906943471747647417e-02
3.922848170639447324e-02
3.944720635705414175e-02
3.973790565237330513e-02
4.010744596743219537e-02
4.055895401378047799e-02
4.109555649866867416e-02
4.172038012934633361e-02
4.243655161306392892e-02
4.324683505535736883e-02
4.412489553646525148e-02
4.499447297435645726e-02
4.577439506385228701e-02
4.638348949977358360e-02
4.674058397694223765e-02
4.676450619018045207e-02
4.637424973503519177e-02
4.556722758057669270e-02
4.454430582027803925e-02
4.353891585862965791e-02
4.278448910012433437e-02
4.251445694925424373e-02
4.296225081050999289e-02
4.436130208838347244e-02
4.747633515761702505e-02
