1.132698994569760309e+00
1.117500609716508775e+00
1.078251873093063251e+00
1.016884857343796300e+00
9.369132920003081511e-01
8.418685891246807662e-01
7.352972197345737371e-01
6.207607138032255056e-01
5.018356602594525873e-01
3.821137069876491266e-01
2.652015608277882852e-01
1.546752098641183681e-01
5.293504932392696649e-02
-3.891324978794918205e-02
-1.200492446845970451e-01
-1.899057657960006584e-01
-2.481689167690400710e-01
-2.947780744674921571e-01
-3.299258889720299570e-01
-3.540582835802233985e-01
-3.678744548065387976e-01
-3.723268723823388027e-01
-3.686212792558826723e-01
-3.582166915923266637e-01
-3.428249126538893687e-01
-3.240074744853680411e-01
-3.029072503462468813e-01
-2.806300723892540816e-01
-2.581393532172769345e-01
-2.362560858833616384e-01
-2.156588438907138250e-01
-1.968837811926977266e-01
-1.803246321928370366e-01
-1.662327117448141600e-01
-1.547169151524711295e-01
-1.457437181698084949e-01
-1.391371770009859343e-01
-1.345789283003226977e-01
-1.316081891722964692e-01
-1.296217571715445604e-01
-1.281921457087999983e-01
-1.273826196232478447e-01
-1.270677184360413936e-01
-1.271293023137475831e-01
-1.274598175085348006e-01
-1.279622963581729111e-01
-1.285503572860331734e-01
-1.291482048010881567e-01
-1.296906294979121577e-01
-1.301230080566807834e-01
-1.304013032431708963e-01
-1.304920913236402580e-01
-1.303731504866126045e-01
-1.300334527822444020e-01
-1.294725821489589590e-01
-1.287007086107808951e-01
-1.277385882773362791e-01
-1.265973442266542515e-01
-1.252343588679171449e-01
-1.236352326399464130e-01
-1.217887868339662810e-01
-1.196845300493308839e-01
-1.173126581935245577e-01
-1.146640544821614094e-01
-1.117302894389853030e-01
-1.085036208958709003e-01
-1.049769939928220930e-01
-1.011440411779729320e-01
-9.699908220758780841e-02
-9.253712414606066194e-02
-8.775386136591585562e-02
-8.264567554780714864e-02
-7.720963568051884829e-02
-7.144349806096532418e-02
-6.534570629419034216e-02
-5.891539129336802183e-02
-5.215237127980251741e-02
-4.505715178292792056e-02
-3.763092564030824649e-02
-2.987557299763771157e-02
-2.179366130874024754e-02
-1.338844533556993177e-02
-4.663867148210751323e-03
4.410642156838853745e-03
1.385795452399340988e-02
2.365139215965211816e-02
3.376464081972602171e-02
4.417183611313120484e-02
5.484756350178811302e-02
6.576685830062301008e-02
7.690520567756685411e-02
8.823854065355553333e-02
9.974324810252990781e-02
1.113961627514360730e-01
1.231745691802249160e-01
1.350562018218526283e-01
1.470192449622801378e-01
1.590423327404735798e-01
1.711045491484039505e-01
1.831854280310475647e-01
1.952649530863849736e-01
2.073235578639927579e-01
2.193407154361486922e-01
2.312903896958816707e-01
2.431435999010594373e-01
2.548712657783483992e-01
2.664447569030249374e-01
2.778358927033701686e-01
2.890169424606706117e-01
2.999606253092174657e-01
3.106401102363072209e-01
3.210290160822415473e-01
3.311014115403262403e-01
3.408318151568732191e-01
3.501951953311988053e-01
3.591669703156244453e-01
3.677230082154767654e-01
3.758396269890870722e-01
3.834935944477921299e-01
3.906621282559331054e-01
3.973228959308569008e-01
4.034540148429150985e-01
4.090340522154639613e-01
4.140420251248654315e-01
4.184574005004861319e-01
4.222600951246973655e-01
4.254304756328762815e-01
4.279283096538654130e-01
4.297098260587781104e-01
4.307956705220712945e-01
4.312080459870087368e-01
4.309686293579894079e-01
4.300985715005457566e-01
4.286184972413452643e-01
4.265485053681895566e-01
4.239081686300147367e-01
4.207165337368911073e-01
4.169921213600237264e-01
4.127529261317518516e-01
4.080164166455491070e-01
4.027995354560235941e-01
3.971186990789176141e-01
3.909897979911082233e-01
3.844281966306068443e-01
3.774487333965588221e-01
3.700657206492444784e-01
3.622929447100781686e-01
3.541436658616085031e-01
3.456306183475190696e-01
3.367660103726275445e-01
3.275615241028860258e-01
3.180283156653807008e-01
3.081774550168373539e-01
2.980289180448361108e-01
2.876112210104936895e-01
2.769527208572892807e-01
2.660812484898368302e-01
2.550241087738842616e-01
2.438080805363141423e-01
2.324594165651435174e-01
2.210038436095239089e-01
2.094665623797409004e-01
1.978722475472148024e-01
1.862450477444998476e-01
1.746085855652855234e-01
1.629859575643946568e-01
1.513997342577852734e-01
1.398719601225497100e-01
1.284241535969142534e-01
1.170773070802399729e-01
1.058518869330220824e-01
9.476783347689061998e-02
8.384456099460940726e-02
7.310095773007727060e-02
6.255538588832740277e-02
5.222568163552634285e-02
4.212915509897683514e-02
3.228237058412301852e-02
2.269450235292888585e-02
1.336735798294049274e-02
4.302636126255508092e-03
-4.497833132022139441e-03
-1.303208827378119286e-02
-2.129803634790391337e-02
-2.929345297026589995e-02
-3.701598232373562447e-02
-4.446313715817494516e-02
-5.163229879043899906e-02
-5.852071710437617424e-02
-6.512551055082785312e-02
-7.144366614762868994e-02
-7.747203947960680515e-02
-8.320735469858328570e-02
-8.864620452337239331e-02
-9.378505023978198074e-02
-9.862022170061256199e-02
-1.031479173256583393e-01
-1.073642041017064397e-01
-1.112650175825374010e-01
-1.148461618889248248e-01
-1.181033097086356398e-01
-1.210320022964299913e-01
-1.236276495023347910e-01
-1.258891709265543002e-01
-1.278290633711635094e-01
-1.294624416854561755e-01
-1.308021365866448016e-01
-1.318602392165397763e-01
-1.326487092472599660e-01
-1.331793749179167874e-01
-1.334639330346155950e-01
-1.335139489704543492e-01
-1.333408566655248373e-01
-1.329559586269114524e-01
-1.323704259286921092e-01
-1.315952982119380499e-01
-1.306414836847135663e-01
-1.295197591220760280e-01
-1.282407698660764650e-01
-1.268150298257586517e-01
-1.252529214771598565e-01
-1.235646958633103976e-01
-1.217604725942339483e-01
-1.198502398469473706e-01
-1.178438543654607290e-01
-1.157510414607773042e-01
-1.135813950108933990e-01
-1.113443774607988934e-01
-1.090467723454813659e-01
-1.066935596488814836e-01
-1.042929632227946324e-01
-1.018531843649385787e-01
-9.938237270267498424e-02
-9.688862619300851742e-02
-9.437999112258728396e-02
-9.186446210770334020e-02
-8.934998209429124982e-02
-8.684444235792970757e-02
-8.435568250384040123e-02
-8.189149046688849742e-02
-7.945960251158246113e-02
-7.706770323207472184e-02
-7.472342555216020255e-02
-7.243435072527808216e-02
-7.020800833451022738e-02
-6.805187629258237225e-02
-6.597338084186329943e-02
-6.397989655436547851e-02
-6.207874633174479545e-02
-6.027720140530027498e-02
-5.858248133597451779e-02
-5.700175401435331884e-02
-5.554213566066618785e-02
-5.421044520153868451e-02
-5.300841801433190531e-02
-5.193302678263989752e-02
-5.098101115489542950e-02
-5.014905910917548393e-02
-4.943380695320014062e-02
-4.883183932433273616e-02
-4.833968918957998878e-02
-4.795383784559253959e-02
-4.767071491866375216e-02
-4.748669836473064926e-02
-4.739811446937384348e-02
-4.740123784781698907e-02
-4.749229144492735089e-02
-4.766744653521545749e-02
-4.792282272283551747e-02
-4.825448794158488514e-02
-4.865845845490440746e-02
-4.913069885587788982e-02
-4.966712206723346984e-02
-5.026358934134173007e-02
-5.091591026021732858e-02
-5.161984273551792346e-02
-5.237109300854464466e-02
-5.316531565024218420e-02
-5.399811356119844918e-02
-5.486503797164465901e-02
-5.576890357043068347e-02
-5.673125591411103119e-02
-5.773719777358789218e-02
-5.876784799507017709e-02
-5.980458037862206033e-02
-6.082902367816363232e-02
-6.182306160146991414e-02
-6.276883281017141269e-02
-6.364873091975410679e-02
-6.444540449955933614e-02
-6.514175707278364869e-02
-6.572094711647921694e-02
-6.616638806155357433e-02
-6.646174829276943474e-02
-6.659095114874510890e-02
-6.653817492195404637e-02
-6.628785285872555721e-02
-6.582467315924386830e-02
-6.513357897754880332e-02
-6.419976842153529706e-02
-6.300869455295420030e-02
-6.154606538741123900e-02
-5.979784389436781922e-02
-5.775024799302252987e-02
-5.538958871637804371e-02
-5.270184089035323538e-02
-4.967309935388794506e-02
-4.629013030663937933e-02
-4.254195715534826033e-02
-3.841845932459655305e-02
-3.390977130832851377e-02
-2.900628255434412051e-02
-2.369863746429839990e-02
-1.797773539370189910e-02
-1.183473065192060941e-02
-5.261032502175827519e-03
1.751694838455837566e-03
9.220625863160136770e-03
1.718413599844874351e-02
2.557891950886972965e-02
3.432805529959716273e-02
4.335697623473966367e-02
5.259346913734092022e-02
6.196767478937913187e-02
7.141208793176721803e-02
8.086155726435316493e-02
9.025328544591969260e-02
9.952682909418386625e-02
1.086240987857980678e-01
1.174893590563489826e-01
1.260692284003581964e-01
1.343126792712822370e-01
1.421710380815119357e-01
1.495979852023737178e-01
1.565495549641277573e-01
1.629841356559699195e-01
1.688624695260299846e-01
1.741476527813733410e-01
1.788051355879993198e-01
1.828027220708427492e-01
1.861105703137725387e-01
1.887011923595929563e-01
1.905494542100426569e-01
1.916325758257949874e-01
1.919301311264586807e-01
1.914240479905763848e-01
1.900986082556261336e-01
1.879404477180203759e-01
1.849325189729100205e-01
1.811042173086649387e-01
1.765425248100221944e-01
1.713327917608954420e-01
1.655573955813084142e-01
1.592957408273918130e-01
1.526241921453050931e-01
1.456148279748252228e-01
1.383355562966912533e-01
1.308512683929237974e-01
1.232238826816529353e-01
1.155123447171179929e-01
1.077726271896664034e-01
1.000577299257550817e-01
9.241767988795018818e-02
8.489953117492606005e-02
7.754736502146659938e-02
7.040228979846478718e-02
6.350244101292173982e-02
5.688298130794838814e-02
5.057610046276436733e-02
4.461101539269814176e-02
3.901397014918730338e-02
3.380823591977810683e-02
2.901411102812603490e-02
2.464892093399560780e-02
2.072701823326017836e-02
1.725978265790183500e-02
1.425562107601199835e-02
1.171996749179081768e-02
9.658724719999321057e-03
8.564339741831178757e-03
8.572142150037575722e-03
9.391050373721758146e-03
1.075257746578025739e-02
1.241083110290298712e-02
1.414251358557389385e-02
1.574692183807065507e-02
1.704594740846406692e-02
1.788407646861916306e-02
1.812838981419411660e-02
1.766856286464097217e-02
1.641686566320536833e-02
1.430816287692673883e-02
1.129991379663787543e-02
7.372172336965361616e-03
2.527587036329492776e-03
-3.208598943056056862e-03
-9.788547815183588907e-03
-1.714182717025213021e-02
-2.517540997466702346e-02
-3.377367457103951087e-02
-4.279840467818794847e-02
-5.208878939113617546e-02
-6.146142318111535996e-02
-7.071030589556251411e-02
-7.960684284984670400e-02
-8.790141048664851242e-02
-9.532733988579317197e-02
-1.014871794249307124e-01
-1.048356831568348912e-01
-1.033697722806820318e-01
-9.537552465450566119e-02
-7.943704347586821868e-02
-5.443689073770727194e-02
-1.955608741507264270e-02
2.572588653487391241e-02
8.163109217285755004e-02
1.480831315774918389e-01
2.247071478452735693e-01
3.108298250905990878e-01
4.054793884457413844e-01
5.073856040608641926e-01
6.149797791040193529e-01
7.263947617611461460e-01
8.395513354946924078e-01
9.511424333243246876e-01
1.055514535297642054e+00
1.147639614765731952e+00
1.223404576305643809e+00
1.279611255720390695e+00
1.313976420038949433e+00
1.325131767516259051e+00
1.312623927633223220e+00
1.276914461096709807e+00
1.219379859839547553e+00
1.142311547020530282e+00
1.048915877024414467e+00
9.429898389532437308e-01
8.284374554080207176e-01
7.094495060187534508e-01
5.897542166721093659e-01
4.725961616072688609e-01
3.607362634159264059e-01
2.564517930422887670e-01
1.615363697830773104e-01
7.729996128752522622e-02
4.568883557380803984e-03
-5.631419905309620333e-02
-1.054902738371314153e-01
-1.435703082083930049e-01
-1.701577094840943383e-01
-1.859728284574496127e-01
-1.928261754236345327e-01
-1.923986309855213739e-01
-1.862414460536788163e-01
-1.757762418463716392e-01
-1.622943011920000012e-01
-1.469439924283801324e-01
-1.307322556990230256e-01
-1.145359913292320619e-01
-9.910246995200697184e-02
-8.504933250804336264e-02
-7.286459024573377352e-02
-6.290662472116712034e-02
-5.540418779812887606e-02
-5.045640164809987727e-02
-4.803275875025900254e-02
-4.797312189148025818e-02
-4.986239780996229443e-02
-5.321277728112719374e-02
-5.783389741574927745e-02
-6.355002059033618145e-02
-7.019500378071281965e-02
-7.761229856202354893e-02
-8.565495110873083684e-02
-9.418560219461617755e-02
-1.030764871927797172e-01
-1.122094360756401427e-01
-1.214758734149348068e-01
-1.307768183817200058e-01
-1.400228847463702297e-01
-1.491342808785801888e-01
-1.580408097473601503e-01
-1.666818689210419480e-01
-1.750064505672749293e-01
-1.829731414530273714e-01
-1.905501229445861477e-01
-1.977151710075570612e-01
-2.044556562068642336e-01
-2.107685437067506051e-01
-2.166603932707778513e-01
-2.221473592618261328e-01
-2.272551906420948176e-01
-2.320164474395002840e-01
-2.363503928448076885e-01
-2.401830471648461196e-01
-2.434880823809696948e-01
-2.462401033085827029e-01
-2.484146475971403256e-01
-2.499881857301492483e-01
-2.509381210251664385e-01
-2.512427896338005340e-01
-2.508814605417107879e-01
-2.498343355686078460e-01
-2.480825493682531357e-01
-2.456081694284592554e-01
-2.423941967922868534e-01
-2.384310524400678477e-01
-2.337323995257348797e-01
-2.283176261545407648e-01
-2.222070532657893227e-01
-2.154219346328358764e-01
-2.079845046793236119e-01
-1.999181909067970775e-01
-1.912474417592744391e-01
-1.819976385849919609e-01
-1.721950955662362448e-01
-1.618670597193451188e-01
-1.510417108947074705e-01
-1.397481617767635242e-01
-1.280102777134240477e-01
-1.158241441055058996e-01
-1.032294948054034434e-01
-9.027372621351892334e-02
-7.700352924636683083e-02
-6.346488933657334908e-02
-4.970308643287607575e-02
-3.576269500012446700e-02
-2.168758401928017054e-02
-7.520916987415637855e-03
6.694848082284321489e-03
2.091795866052292840e-02
3.510736770189226696e-02
4.922273364487289582e-02
6.322442041183246042e-02
7.707349740902769142e-02
9.073173952660379404e-02
1.041616271385935599e-01
1.173263461029187549e-01
1.301897877613890087e-01
1.427165489397022036e-01
1.548719319474447520e-01
1.666219445780911523e-01
1.779333001090042388e-01
1.887734173014346262e-01
1.991104204005220701e-01
2.089131391352949674e-01
2.181511087186671638e-01
2.267945698474440608e-01
2.348144687023178689e-01
2.421824569478690514e-01
2.488708917325669345e-01
2.548528356887685975e-01
2.601020569327192611e-01
2.645930290645528427e-01
2.683009311682910680e-01
2.712016478118445262e-01
2.732724839811159212e-01
2.744661720551947459e-01
2.747175715210115610e-01
2.740675074491923380e-01
2.725602593663982720e-01
2.702394198610913456e-01
2.671478945835332741e-01
2.633279022457869489e-01
2.588209746217152163e-01
2.536679565469815434e-01
2.479090059190505180e-01
2.415835936971861275e-01
2.347305039024536466e-01
2.273878336177186654e-01
2.195929929876469511e-01
2.113827052187050859e-01
2.027930065791599956e-01
1.938592463990789772e-01
1.846160870703301982e-01
1.750975040465818644e-01
1.653367858433029414e-01
1.553665340377637372e-01
1.452186632690322110e-01
1.349244012379796631e-01
1.245142887072767379e-01
1.140181795013947286e-01
1.034652405066057435e-01
9.288395167098151273e-02
8.230210600439535895e-02
7.174680957852014318e-02
6.124448152682959723e-02
5.082085404459812938e-02
4.050097238890024154e-02
3.030919487861097328e-02
2.026919289440617944e-02
1.040395087876191949e-02
7.357663359548738402e-04
-8.713750167938238977e-03
-1.792367500503949662e-02
-2.687377148567079987e-02
-3.554448985835378938e-02
-4.391696730980940155e-02
-5.197302796495825716e-02
-5.969518288692010621e-02
-6.706663007701449408e-02
-7.407125447476090030e-02
-8.069362795787748954e-02
-8.691900934228241615e-02
-9.273334438209340780e-02
-9.812326576962743241e-02
-1.030760937108931574e-01
-1.075829173256206694e-01
-1.116457981526829679e-01
-1.152696277294611715e-01
-1.184599845315357503e-01
-1.212231339726863033e-01
-1.235660284048918922e-01
-1.254964112672307119e-01
-1.270223922572009112e-01
-1.281517836375484221e-01
-1.289000919534824818e-01
-1.292834938079371332e-01
-1.293179826841990565e-01
-1.290193689459069315e-01
-1.284032798370519091e-01
-1.274851594819767231e-01
-1.262802688853773836e-01
-1.248036859323017889e-01
-1.230703053881497810e-01
-1.210948388986735902e-01
-1.188918149899777510e-01
-1.164755790685191583e-01
-1.138602934211067480e-01
-1.110599372149020381e-01
-1.080883064974184904e-01
-1.049590141965219686e-01
-1.016854901204305023e-01
-9.828098095771448106e-02
-9.475855027729618296e-02
-9.113107852845123147e-02
-8.741126304080626408e-02
-8.361161802434054213e-02
-7.974447456938606182e-02
-7.582198064662626358e-02
-7.185610110709778064e-02
-6.785861768218871826e-02
-6.384112898363980548e-02
-5.981505050354392339e-02
-5.579161461434627156e-02
-5.178187056884411832e-02
-4.779668450018752235e-02
-4.384673942187808371e-02
-3.994253522777020671e-02
-3.609438869207032274e-02
-3.231243346933697358e-02
-2.860662009448142196e-02
-2.498671598276670791e-02
-2.146230542980849532e-02
-1.804278961157428085e-02
-1.473738658438411564e-02
-1.155513128491023056e-02
-8.504592380049469380e-03
-5.589283919515061760e-03
-2.808433046162739366e-03
-1.609555920495941983e-04
2.354415730415254648e-03
4.739131328470536086e-03
6.994824729002299679e-03
9.123312578544900964e-03
1.112659464328004388e-02
1.300685380903733590e-02
1.476667214422873464e-02
1.640850202423822790e-02
1.793340859327174908e-02
1.934245276526778967e-02
2.063677175547690146e-02
2.181757908046253608e-02
2.288616455810071199e-02
2.384389430757988954e-02
2.469221074940110283e-02
2.543263260537824422e-02
2.606675489863743284e-02
2.659624895361775709e-02
2.702286239607047669e-02
2.734841915305966098e-02
2.757481945296193226e-02
2.770403982546656291e-02
2.773813310157541984e-02
2.767922841360278413e-02
2.752953119517539959e-02
2.729132318123321521e-02
2.696696240802814309e-02
2.655888321312503686e-02
2.606959623540095611e-02
2.550168841504626971e-02
2.485782299356294536e-02
2.414073951376612820e-02
2.335325381978357526e-02
2.249825805705557569e-02
2.157872067233497504e-02
2.059768641368682138e-02
1.955827633048933673e-02
1.846368777343269929e-02
1.731719439452092391e-02
1.612214614706903096e-02
1.488196928570562072e-02
1.360016636637158098e-02
1.228031624632021715e-02
1.092607408411776573e-02
9.541171339642681368e-03
8.129415774086438257e-03
6.694691462781295066e-03
5.241003275568960167e-03
3.772576491912027312e-03
2.293741815851789087e-03
8.089062527418949822e-04
-6.774468907508688492e-04
-2.160758006647899715e-03
-3.639050628120492695e-03
-5.118466708212412661e-03
-6.584058707858636561e-03
-8.017607003426085316e-03
-9.400993760582770226e-03
-1.071620352877761251e-02
-1.194532324124007033e-02
-1.307054221498017352e-02
-1.407415215078866230e-02
-1.493854713323709144e-02
-1.564622363067791344e-02
-1.617978049524361472e-02
-1.652191896284777722e-02
-1.665544265318481820e-02
-1.656325756972967800e-02
-1.622837209973790329e-02
-1.563389701424590383e-02
-1.476304546807072349e-02
-1.359913299981005408e-02
-1.212557753184211051e-02
-1.032589937032638017e-02
-8.183721205202193483e-03
-5.682768110190486444e-03
-2.806867542792072789e-03
4.600506557111486150e-04
4.133954260256596236e-03
8.230708662001193221e-03
1.276607686832065269e-02
1.775571950281065736e-02
2.321519480528574930e-02
2.915995863178008629e-02
3.560608121178744645e-02
4.261693711918101979e-02
5.018664466427366633e-02
5.826010035013066968e-02
6.678291887646947700e-02
7.570143313965918552e-02
8.496269423272070909e-02
9.451447144532712508e-02
1.043052522638034246e-01
1.142842423711264016e-01
1.244013656469245555e-01
1.346072641674783965e-01
1.448532982057205432e-01
1.550912800144273185e-01
1.652693475239146170e-01
1.753327532116437937e-01
1.852273612494790278e-01
1.948997540059369815e-01
2.042972320461859947e-01
2.133678141320462240e-01
2.220602372219896981e-01
2.303239564711407339e-01
2.381091452312749102e-01
2.453666950508202604e-01
2.520482156748566904e-01
2.581060350451155339e-01
2.634931992999802741e-01
2.681634727744866553e-01
2.720713380003216830e-01
2.751719957058247346e-01
2.774213648159867263e-01
2.787760824524508907e-01
2.791778852128771748e-01
2.786063277863988219e-01
2.771394998400924514e-01
2.748564997465262061e-01
2.718337511634997816e-01
2.681450030340462032e-01
2.638613295864301600e-01
2.590511303341488381e-01
2.537801300759321421e-01
2.481113788957416411e-01
2.421052521627717613e-01
2.358194505314497036e-01
2.293089999414336111e-01
2.226262516176152617e-01
2.158208820701184305e-01
2.089398930942991117e-01
2.020276117707454633e-01
1.951256904652785285e-01
1.882731068289512921e-01
1.815061637980494580e-01
1.748584895940907824e-01
1.683610377238251021e-01
1.620420869792351393e-01
1.559272414375358351e-01
1.500394304611745999e-01
1.443989086978304248e-01
1.390232560804158246e-01
1.339273778270743398e-01
1.291235044411834232e-01
1.246211917113513173e-01
1.204273207114198163e-01
1.165460986104185775e-01
1.129809925735877074e-01
1.097388771811349945e-01
1.068251444064702849e-01
1.042458326697407595e-01
1.019848312241692645e-01
1.000012813103867138e-01
9.824664658331185019e-02
9.666480807423666333e-02
9.519192747372820507e-02
9.375568461558055067e-02
9.227581340918511454e-02
9.066446412466222515e-02
8.882620440850476362e-02
8.665801928357788619e-02
8.404931114911937118e-02
8.088189978073953568e-02
7.703002233042073599e-02
7.236033332651833905e-02
6.673190467375966772e-02
5.999622565324516654e-02
5.199720292244645881e-02
4.257116051520892785e-02
3.154683984174974642e-02
1.876983480636036650e-02
4.550294928239662084e-03
-1.038937964651098778e-02
-2.528326021208952834e-02
-3.933017655546569569e-02
-5.169371695637869912e-02
-6.150222818733820651e-02
-6.784881551362290097e-02
-6.979134269328292339e-02
-6.635243197713681929e-02
-5.651946410877398130e-02
-3.924457832455301165e-02
-1.344467235360323476e-02
2.196828173224979475e-02
6.734668006820801467e-02
1.232324457649932176e-01
1.900185472402951548e-01
2.675894316848104748e-01
3.553210250622440558e-01
4.520807321093067710e-01
5.562274363357183615e-01
6.656115000242052160e-01
7.775747642305015361e-01
8.889505487833492259e-01
9.960636522844966700e-01
1.094730352108701066e+00
1.180258355472473264e+00
1.247172180353160353e+00
1.292752242741590063e+00
1.316389715683804473e+00
1.317974559633088294e+00
1.297895622760713463e+00
1.257040640955939370e+00
1.196796237826011744e+00
1.119047924696163987e+00
1.026180100609616730e+00
9.210760523275780542e-01
8.071179543292428260e-01
6.881868688117926958e-01
5.686627456903978750e-01
4.534244225982141385e-01
3.478063524274084828e-01
2.533651917886775573e-01
1.695680828933744111e-01
9.699967333813991344e-02
3.601606875527360585e-02
-1.325516718726768572e-02
-5.091501278586796353e-02
-7.729298830125469477e-02
-9.294715595849639689e-02
-9.866411994700360899e-02
-9.545902642052955800e-02
-8.457556349716827127e-02
-6.748596125935779622e-02
-4.589099175387600926e-02
-2.152721831693160670e-02
4.504515516040336065e-03
3.115234212552972504e-02
5.749752821746359488e-02
8.277189285115338357e-02
1.063578074392953210e-01
1.277881957479698738e-01
1.467465338966426891e-01
1.630668503581636508e-01
1.767337259587670739e-01
1.878822938780719543e-01
1.967982396490821351e-01
2.039178011581861960e-01
2.098040869589310464e-01
2.146591702887334363e-01
2.185833667416326453e-01
2.217329212015468065e-01
2.242488163175686555e-01
2.262567725039640598e-01
2.278672479401734063e-01
2.291754385708099917e-01
2.302612781056619651e-01
2.311894392495598693e-01
2.320114527677090699e-01
2.327700575344852640e-01
2.334939600590429931e-01
2.341966046157115677e-01
2.348761732439930139e-01
2.355155857485643767e-01
2.360927976800078210e-01
2.366531755619132038e-01
2.372195243729540715e-01
2.378047195461335805e-01
2.384221902903553014e-01
2.390853422234988923e-01
2.398071268492965036e-01
2.406000399181411620e-01
2.414761214270873257e-01
2.424469556198479703e-01
2.435236709867987515e-01
2.447169402649737868e-01
2.460369804380697356e-01
2.474935527364416354e-01
2.490959626371074542e-01
2.508530598637430664e-01
2.527732383866874710e-01
2.548644364229376569e-01
2.571341364361535708e-01
2.595893651366529831e-01
2.622366934814168715e-01
2.651138378989923994e-01
2.683072644758186520e-01
2.718035563842122748e-01
2.755831331574462029e-01
2.796267161803763779e-01
2.839153286894359196e-01
2.884302957726404548e-01
2.931532443695834544e-01
2.980661032714406744e-01
3.031511031209660478e-01
3.083907764124955153e-01
3.137679574919427505e-01
3.192657825568037122e-01
3.248676896561537575e-01
3.305574186906472534e-01
3.363190114125206298e-01
3.421368114255883830e-01
3.479954641852470165e-01
3.538799169984711557e-01
3.597754190238172667e-01
3.656675212714206591e-01
3.715420766029977617e-01
3.773852397318440133e-01
3.831832212693578321e-01
3.889187939459596843e-01
3.945721227314634705e-01
4.001235978034869967e-01
4.055539111912277450e-01
4.108440567754636508e-01
4.159753302885521586e-01
4.209293293144311110e-01
4.256879532886180262e-01
4.302334034982114308e-01
4.345481830818890279e-01
4.386150970299095286e-01
4.424172521841106542e-01
4.459380572379108565e-01
4.491612227363082077e-01
4.520707610758824546e-01
4.546509865047911325e-01
4.568865151227734511e-01
4.587622648811479076e-01
4.602634555828135632e-01
4.613756088822493218e-01
4.620845482855143738e-01
4.623763991502477522e-01
4.622375886856690541e-01
4.616548459525772197e-01
4.606152018633517531e-01
4.591059891819523897e-01
4.571148425239188740e-01
4.546296983563706262e-01
4.516387949980074090e-01
4.481287837078427594e-01
4.440714382830213136e-01
4.394868170149210385e-01
4.344083486249737391e-01
4.288687816985961021e-01
4.229001846851867530e-01
4.165339458981283660e-01
4.098007735147868313e-01
4.027306955765115881e-01
3.953530599886342367e-01
3.876965345204702595e-01
3.797891068053186325e-01
3.716580843404626577e-01
3.633300944871653004e-01
3.548310844706780709e-01
3.461863213802297001e-01
3.374203921690386854e-01
3.285572036542999674e-01
3.196199825171984199e-01
3.106312753028964146e-01
3.016129484185378073e-01
2.925861855441829196e-01
2.835714825476167711e-01
2.745886537457448706e-01
2.656568333194664899e-01
2.567944753136526259e-01
2.480193536371693708e-01
2.393485620628544308e-01
2.307985142275402746e-01
2.223849436320307071e-01
2.141229036411254338e-01
2.060266926206629490e-01
1.981093682074970830e-01
1.903830537541643664e-01
1.828591912151557586e-01
1.755485424089371360e-01
1.684611890179587568e-01
1.616065325886604231e-01
1.549932945314561605e-01
1.486295161207527027e-01
1.425225584949302016e-01
1.366791026563621836e-01
1.311051494713956211e-01
1.258060196703700562e-01
1.207863538475991982e-01
1.160501124613888685e-01
1.116005758340198328e-01
1.074403441517641916e-01
1.035713374648697394e-01
9.999479617554860034e-02
9.671602677609061893e-02
9.373201577974091259e-02
9.103147624422892881e-02
8.860328860929264638e-02
8.643650069667505043e-02
8.452032771012740753e-02
8.284415223540639306e-02
8.139752424027668631e-02
8.017016107450859741e-02
7.915194746988001018e-02
7.833293554017518867e-02
7.770334478118560984e-02
7.725356207070738224e-02
7.697414166854703310e-02
7.685580521651411146e-02
7.688944173842857110e-02
7.706610764011295744e-02
7.737702670940078964e-02
7.781359011612848375e-02
7.836735641214270798e-02
7.903005153129348537e-02
7.979355425828710269e-02
8.064969846512597129e-02
8.159032456774704956e-02
8.260743637347306434e-02
8.369320507163488521e-02
8.483996923357027542e-02
8.604023481262294826e-02
8.728667514414419071e-02
8.857213094549114263e-02
8.988961031602879515e-02
9.123228873712753428e-02
9.259350907216593041e-02
9.396678156652781000e-02
9.534578384760536429e-02
9.672436092479566594e-02
9.809652518950455480e-02
9.945645641514316848e-02
1.007985017571291775e-01
1.021171757528887281e-01
1.034071603218525703e-01
1.046633047654601523e-01
1.058806257671557616e-01
1.070543073923923560e-01
1.081797010886277888e-01
1.092523256853283331e-01
1.102678673939656018e-01
1.112221798080190172e-01
1.121112839029740071e-01
1.129313680363232264e-01
1.136787879475657514e-01
1.143500667582073582e-01
1.149418949717609939e-01
1.154511304737457222e-01
1.158747985316880558e-01
1.162100917951206791e-01
1.164543702955834481e-01
1.166051614466224184e-01
1.166601600437910113e-01
1.166172282646489589e-01
1.164743956687627757e-01
1.162298591977059536e-01
1.158819831750585450e-01
1.154292993064073292e-01
1.148705066793459517e-01
1.142047828173393120e-01
1.134340723879770085e-01
1.125550929469571471e-01
1.115631688053874415e-01
1.104538163632429737e-01
1.092227441093668872e-01
1.078658540997842752e-01
1.063807128808437613e-01
1.047693144594153553e-01
1.030346018283713749e-01
1.011797100694519502e-01
9.920796635326376012e-02
9.712288993928273884e-02
9.492819217585098113e-02
9.262777650017982312e-02
9.022573843834708063e-02
8.772636560529964433e-02
8.513413770485026011e-02
8.245372451958513094e-02
7.968997183875442536e-02
7.684790982289743666e-02
7.393276067266113527e-02
7.094993867756162198e-02
6.790505021598293445e-02
6.480389375517520145e-02
6.165245985125855643e-02
5.845693114921840516e-02
5.522368238291042175e-02
5.195928037505567754e-02
4.867048403724499872e-02
4.536424436993489323e-02
4.204770446245214427e-02
3.872819949298838410e-02
3.541325672860587415e-02
3.211059552523178734e-02
2.882812732766320413e-02
2.557395566956479488e-02
2.235637617346693945e-02
1.918387655077062603e-02
1.606513660174178904e-02
1.300902821551667282e-02
1.002461537009675940e-02
7.121154132353743615e-03
4.308092658024797322e-03
1.595071191716788267e-03
-1.008190394808188700e-03
-3.514507338038652673e-03
-5.913024214027264025e-03
-8.168965648321164369e-03
-1.024922769386078097e-02
-1.212237783098168986e-02
-1.375865496741094859e-02
-1.512996943827062644e-02
-1.620990300607481546e-02
-1.697370886073237828e-02
-1.739831161954441541e-02
-1.746230732720614395e-02
-1.714608425834810573e-02
-1.643339885474242451e-02
-1.531093068182268202e-02
-1.376705993607987843e-02
-1.179183824140012798e-02
-9.376988649059579684e-03
-6.515905637732868905e-03
-3.203655113482195560e-03
5.630255902307132465e-04
4.785727712556961388e-03
9.464371065247667580e-03
1.459720403266766275e-02
2.018080357178078654e-02
2.621007521216519448e-02
3.267825305599808550e-02
3.957689977807037074e-02
4.689590662577237945e-02
5.462349341910820166e-02
6.274620855068209491e-02
7.129335318799083498e-02
8.025251937961230819e-02
8.952765391556263830e-02
9.902678740264825308e-02
1.086622649433052756e-01
1.183507461355817469e-01
1.280132050731556670e-01
1.375749303453174532e-01
1.469655250369865662e-01
1.561189067286959942e-01
1.649733074966068802e-01
1.734712739124944225e-01
1.815596670437618076e-01
1.891896624534261662e-01
1.963167502001324782e-01
2.029007348381403342e-01
2.089057354173363135e-01
2.143001854832226605e-01
2.190568330769269156e-01
2.231527407351944770e-01
2.265692854903938736e-01
2.292921588705133518e-01
2.313113668991627903e-01
2.326212300955733669e-01
2.332203834745963378e-01
2.331117765467045910e-01
2.323026733179917591e-01
2.308046522901733011e-01
2.286336064605838103e-01
2.258097433221815942e-01
2.223471669670618323e-01
2.182900004695561003e-01
2.137283963401556408e-01
2.087437387921030063e-01
2.034125366774229282e-01
1.978074396625948694e-01
1.919972382285363988e-01
1.860468636706232859e-01
1.800173880986671027e-01
1.739660244369386211e-01
1.679461264241441099e-01
1.620071886134487604e-01
1.561948463724537883e-01
1.505508758832190264e-01
1.451132071177851368e-01
1.399160218959983326e-01
1.349896992261991058e-01
1.303607593738405068e-01
1.260518634188128040e-01
1.220818132554609969e-01
1.184655515925728264e-01
1.152141619533868788e-01
1.123348686755857723e-01
1.098310369113026236e-01
1.077021726271148311e-01
1.059439226040502086e-01
1.045480744375810456e-01
1.035025565376296447e-01
1.027914381285631312e-01
1.023949292491982271e-01
1.023148567696563205e-01
1.025960871837813815e-01
1.031603759903405443e-01
1.039150921221526636e-01
1.047642763076018363e-01
1.056086410706486706e-01
1.063455707308195580e-01
1.068691214032168602e-01
1.070700209985089857e-01
1.068356692229403548e-01
1.060501375783212963e-01
1.045941693620384694e-01
1.023451796670436786e-01
9.917725538186619727e-02
9.496115519059966648e-02
8.956430957291461326e-02
8.285082080404709837e-02
7.468146295481051244e-02
6.491368189158150392e-02
5.340159527631660463e-02
4.000206583669155269e-02
2.497970045891120816e-02
9.251859648555266213e-03
-6.204909389954410548e-03
-2.041565990499677463e-02
-3.241265317653854727e-02
-4.123548407615365563e-02
-4.593108106700252713e-02
-4.555370620384630032e-02
-3.916495513304130149e-02
-2.583375709253427077e-02
-4.636374911878737848e-03
2.534359498779439890e-02
6.501522259373296309e-02
1.152805841185769453e-01
1.771808333150729220e-01
2.504076740163928561e-01
3.336844065471289422e-01
4.254411913485645069e-01
5.238150489785201591e-01
6.266498601114990352e-01
7.314963655386259589e-01
8.356121661675708356e-01
9.359617230227196272e-01
1.029216357244980173e+00
1.111754250091969709e+00
1.179660442937842113e+00
1.228726837273440120e+00
1.254452116569560571e+00
1.253031386778062917e+00
1.225889795546127425e+00
1.176125544880759710e+00
1.106844997756920135e+00
1.021162678117449873e+00
9.222012708731828212e-01
8.130916219028002656e-01
6.969727380530021943e-01
5.769917871383175578e-01
4.563040979413057752e-01
3.380731602123487889e-01
2.254706246698610361e-01
1.216763030000823642e-01
2.966825777246140383e-02
-5.009821710048435739e-02
-1.178075004914824614e-01
-1.735976523965934160e-01
-2.177602017727709449e-01
-2.507401465379575090e-01
-2.731359535710125575e-01
-2.856995587117617807e-01
-2.893363667609676337e-01
-2.851052514803415483e-01
-2.742185588675102870e-01
-2.580441850406255400e-01
-2.381091407775915714e-01
-2.160948539557094317e-01
-1.937590020521004486e-01
-1.720594203192740146e-01
-1.514563938861314130e-01
-1.323384379907028008e-01
-1.150091702917583614e-01
-9.968731086877159753e-02
-8.650668222195131984e-02
-7.551620927221362745e-02
-6.667991936120598595e-02
-5.987694225128712550e-02
-5.490151345292815233e-02
-5.146300138557767523e-02
-4.918589325960583125e-02
-4.760977886278462690e-02
-4.629562632157618873e-02
-4.525620248584338867e-02
-4.443206709544454680e-02
-4.374808034682042823e-02
-4.313634585711620395e-02
-4.253621066417686419e-02
-4.189426522655224916e-02
-4.116434342349228892e-02
-4.030752255495104880e-02
-3.929212334158331543e-02
-3.809370992474798989e-02
-3.669508986650416027e-02
-3.508631414961552869e-02
-3.326467717754582470e-02
-3.123471677446344394e-02
-2.900821418523671577e-02
-2.660159001814511870e-02
-2.399852891889340048e-02
-2.118455346947448192e-02
-1.815235837815416808e-02
-1.489540251854660699e-02
-1.140790892960821812e-02
-7.684864815643791675e-03
-3.722021546300573192e-03
4.841053434256233079e-04
4.936236153197378490e-03
9.636327017327452060e-03
1.458556990478818496e-02
1.978439261920133738e-02
2.523245879884838949e-02
3.092866791666043502e-02
3.687115528022831545e-02
4.305729203179221865e-02
4.948381654912002714e-02
5.614841163900044507e-02
6.304919080966457645e-02
7.018352792193827128e-02
7.754803267130788713e-02
8.513855058790817387e-02
9.295016303653527712e-02
1.009771872166330964e-01
1.092131761623068298e-01
1.176538821937811174e-01
1.263286777598894850e-01
1.352261116041534594e-01
1.443195894854605588e-01
1.535828802250419622e-01
1.629901157064879147e-01
1.725157908757325997e-01
1.821347637410689335e-01
1.918222553731332991e-01
2.015538499049219223e-01
2.113054945317736910e-01
2.210534995113872525e-01
2.307745381638045268e-01
2.404456468714269712e-01
2.500442250789989829e-01
2.595480352936246904e-01
2.689352030847514952e-01
2.781842170841857254e-01
2.872739289860782308e-01
2.961835535469374836e-01
3.048926685856170882e-01
3.133812149833283267e-01
3.216294966836276137e-01
3.296181806924290969e-01
3.373282970779912793e-01
3.447412389709314517e-01
3.518387625642109273e-01
3.586029871131493629e-01
3.650163949354113813e-01
3.710618314110186167e-01
3.767225049823387795e-01
3.819819871540961476e-01
3.868242124933612969e-01
3.912334786295607603e-01
3.951944462544684789e-01
3.986921391222126299e-01
4.017119440492721294e-01
4.042396109144754113e-01
4.062612526590048678e-01
4.077633452863921315e-01
4.087169783620071550e-01
4.090370934859728358e-01
4.087397871246236658e-01
4.078539824014187354e-01
4.064076467033470030e-01
4.044282344603993273e-01
4.019426871455654138e-01
3.989774332748395325e-01
3.955583884072135237e-01
3.917109551446842919e-01
3.874600231322448129e-01
3.828299690578958470e-01
3.778446566526316719e-01
3.725274366904561818e-01
3.669011469883654009e-01
3.609881124063660240e-01
3.548101566240662308e-01
3.483887060575031613e-01
3.417447398320831997e-01
3.348987248699268338e-01
3.278706151361456822e-01
3.206798516388628673e-01
3.133453624291928641e-01
3.058855626012595419e-01
2.983183542921812315e-01
2.906611266820837702e-01
2.829307559940876793e-01
2.751436054943209863e-01
2.673155254919069024e-01
2.594618533389757564e-01
2.515974134306529497e-01
2.437365172050713069e-01
2.358929631433586971e-01
2.280800367696499964e-01
2.203105106510753197e-01
2.125966443977730935e-01
2.049501846628740132e-01
1.973823651425196113e-01
1.899039065758431621e-01
1.825250167449885830e-01
1.752553904750911995e-01
1.681042096342973413e-01
1.610801431337449685e-01
1.541913469275823512e-01
1.474454640129501670e-01
1.408496244299985156e-01
1.344104452618710144e-01
1.281340306347200642e-01
1.220259717176915282e-01
1.160913467229396090e-01
1.103347209056133732e-01
1.047601465638686308e-01
9.937132802925666142e-02
9.417352243676893608e-02
8.917288039828463742e-02
8.437409540933071828e-02
7.977094250540509024e-02
7.535407143401139096e-02
7.111481169393636670e-02
6.704466674557012229e-02
6.313531401089869655e-02
5.937860487351219463e-02
5.576656467859651689e-02
5.229139273294106105e-02
4.894546230493150574e-02
4.572132062455665225e-02
4.261168888340227667e-02
3.960946223465643123e-02
3.670770979310468418e-02
3.389967463513474111e-02
3.117877379873180976e-02
2.853859828348312422e-02
2.597291305057371213e-02
2.347565702279025279e-02
2.104094308451752438e-02
1.866305808174209546e-02
1.633646282204800904e-02
1.405579207462143154e-02
1.181585457024633690e-02
9.611633001308406143e-03
7.438284021791322087e-03
5.291138247280224860e-03
3.165700254958742077e-03
1.057648583611431325e-03
-1.037164266378426403e-03
-3.122711833026911576e-03
-5.202793692750312671e-03
-7.281035460365625767e-03
-9.360888789089444328e-03
-1.144563137053924984e-02
-1.353836693473177422e-02
-1.564202525008480393e-02
-1.775936212341558407e-02
-1.989295939994227547e-02
-2.204522496328238657e-02
-2.421839273545445259e-02
-2.641452267687639799e-02
-2.863550078636709073e-02
-3.088303910114510720e-02
-3.315867569682873217e-02
-3.546377468743787398e-02
-3.779952622539083096e-02
-4.016694331419090602e-02
-4.256547858932909628e-02
-4.499086201691924330e-02
-4.743808985760684244e-02
-4.990198441043935257e-02
-5.237719401286251852e-02
-5.485819304072417357e-02
-5.733928190827052018e-02
-5.981458706814951620e-02
-6.227806101140845318e-02
-6.472348226749405353e-02
-6.714445540425531544e-02
-6.953441102793933570e-02
-7.188660292187501466e-02
-7.418963335532778591e-02
-7.643482082834987534e-02
-7.861856731583602431e-02
-8.073737477568505849e-02
-8.278773638118026856e-02
-8.476597574351629749e-02
-8.666824469943290588e-02
-8.849052331121819159e-02
-9.022861986670588363e-02
-9.187817087927693804e-02
-9.343464108785973221e-02
-9.489332345692817750e-02
-9.624933917650471682e-02
-9.749763766215692462e-02
-9.863299655500067098e-02
-9.965002172169726280e-02
-1.005431472544562471e-01
-1.013066354710324968e-01
-1.019345769147291525e-01
-1.024208903543952776e-01
-1.027593227844272178e-01
-1.029434494247676302e-01
-1.029666737209064958e-01
-1.028222273438803847e-01
-1.025031701902727882e-01
-1.020023903822140504e-01
-1.013126042673812149e-01
-1.004263564189982194e-01
-9.933601963583588157e-02
-9.803379494221171886e-02
-9.651171158799033700e-02
-9.476162704858270835e-02
-9.277522702494729601e-02
-9.054402544358851335e-02
-8.805936445655847267e-02
-8.531241444145583330e-02
-8.229417400142555183e-02
-7.899634362602668547e-02
-7.542098986448154962e-02
-7.157699175523946078e-02
-6.747318159958780315e-02
-6.311821992436311701e-02
-5.852059548194651906e-02
-5.368862525026821264e-02
-4.863045443280281793e-02
-4.335405645857440260e-02
-3.786723298215115274e-02
-3.217761388364973746e-02
-2.629265726873473985e-02
-2.022548297125660588e-02
-1.401701299730906403e-02
-7.655027219269652794e-03
-1.118375010065009167e-03
5.612038846809511150e-03
1.255325415728053562e-02
1.972025531670668075e-02
2.712597130986832417e-02
3.478127571097781867e-02
4.269498668366901450e-02
5.087386698100829219e-02
5.932262394548390438e-02
6.804390950901353929e-02
7.703832019294140632e-02
8.630439710803838871e-02
9.583862595450232114e-02
1.056354370219578509e-01
1.156872051894562159e-01
1.259842499254762160e-01
1.365148352879223537e-01
1.472651699241277201e-01
1.582194070708499711e-01
1.693596445542763784e-01
1.806659247900179455e-01
1.921162347831166239e-01
2.036865061280348499e-01
2.153506150086704207e-01
2.270803821983389537e-01
2.388455730597919269e-01
2.506138975451983608e-01
2.623510101961638585e-01
2.740205101437109825e-01
2.855950630219043496e-01
2.970352971182000368e-01
3.082381033432989859e-01
3.191013483676221618e-01
3.295272626556012829e-01
3.394224404656603911e-01
3.486978570124370513e-01
3.572751551083508947e-01
3.650960178760558339e-01
3.721088880145994038e-01
3.782665720170370616e-01
3.835262401704200297e-01
3.878494265558047882e-01
3.912020290482455809e-01
3.935543093168028528e-01
3.948808928245344241e-01
3.951607688285006525e-01
3.943772903797627682e-01
3.925181743233855380e-01
3.895755012984325472e-01
3.855457157379723054e-01
3.804296258690685884e-01
3.742324037127919278e-01
3.669636142167800319e-01
3.586375165625307337e-01
3.492729430703189752e-01
3.388785382590582262e-01
3.275075744402573541e-01
3.152528098688595071e-01
3.022046032510443681e-01
2.884508808645350753e-01
2.740771365586023300e-01
2.591664317540519624e-01
2.437993954432427779e-01
2.280542241900616884e-01
2.120066821299535220e-01
1.957301009698948491e-01
1.792953799884165200e-01
1.627709860355759097e-01
1.462229535329896413e-01
1.297148844738053308e-01
1.133079484227249856e-01
9.706088251597763672e-02
8.102999146135074493e-02
6.526914753816351333e-02
4.982979059728664950e-02
3.476092806112763417e-02
2.010913492363800709e-02
5.918553750311122269e-03
-7.769105321811624332e-03
-2.091456458415145644e-02
-3.346843363620958384e-02
-4.513862148003201791e-02
-5.589922951463084655e-02
-6.585844466699056210e-02
-7.511897202294789966e-02
-8.377803482718892969e-02
-9.192818729188106941e-02
-9.966595068833955517e-02
-1.070884605114431620e-01
-1.142874720160008545e-01
-1.213492586156725839e-01
-1.283546118829678451e-01
-1.353788415492500619e-01
-1.424917755047334089e-01
-1.497577597984844910e-01
-1.572356586384184296e-01
-1.649788543913061067e-01
-1.730352475827644509e-01
-1.814472568972690103e-01
-1.902518191781393253e-01
-1.994803894275533895e-01
-2.091589408065333555e-01
-2.193079646349612999e-01
-2.299424703915620150e-01
-2.410719857139204114e-01
-2.527005563984638936e-01
-2.648267464004811500e-01
-2.774436378341021414e-01
-2.905388309723186957e-01
-3.040944442469634135e-01
-3.180871142487319281e-01
-3.324889497031883190e-01
-3.463570842195041188e-01
-3.575719515286431838e-01
-3.641963475269145989e-01
-3.645622228824980104e-01
-3.572706830354555052e-01
-3.411919881977309998e-01
-3.154655533531378064e-01
-2.794999482573849447e-01
-2.329728974380343709e-01
-1.758312801945629555e-01
-1.082911305982812850e-01
-3.083763749243380314e-02
5.577485550792130042e-02
1.505228500157735350e-01
2.521136928723130555e-01
3.589855761467645179e-01
4.693075371365673099e-01
5.808735954623168718e-01
6.891957048223523730e-01
7.886123236677702319e-01
8.743488439143783930e-01
9.425670912843029381e-01
9.903653253061330819e-01
1.015778239314808262e+00
1.017776963167359217e+00
9.962699124515583815e-01
9.521039951554235437e-01
8.870628578426833499e-01
8.038665808834131177e-01
7.059401943789562761e-01
5.971377895057732310e-01
4.819673101724321063e-01
3.644883285863045885e-01
2.482569109084749870e-01
1.363256172535294297e-01
3.124350168976387093e-02
-6.494388776101495120e-02
-1.506945091233035106e-01
-2.249698264680705106e-01
-2.872348099126054710e-01
-3.374579356206538483e-01
-3.753875801764499642e-01
-4.002525877384611186e-01
-4.137696515517820806e-01
-4.176877393341633105e-01
-4.136357681638680450e-01
-4.031226011369563045e-01
-3.875370473672918870e-01
-3.681478619865248825e-01
-3.461037461441160978e-01
-3.224333470073073027e-01
-2.980452577611539255e-01
-2.737280176084906369e-01
-2.501501117699684307e-01
-2.278599714840157109e-01
-2.072859740068758727e-01
-1.887364426125724415e-01
-1.723996465929417687e-01
-1.583438012576035003e-01
-1.465170679339846682e-01
-1.367475539673011498e-01
-1.286287193846546995e-01
-1.215904677440302339e-01
-1.154836230014797682e-01
-1.101881077791833780e-01
-1.055905676023984052e-01
-1.015843708994497996e-01
-9.806960900173729290e-02
-9.495309614372865470e-02
-9.214836946296676989e-02
-8.957568900006344925e-02
-8.716203769870442541e-02
-8.484112140564431526e-02
-8.255336887071207386e-02
-8.024593174680617891e-02
-7.787255455492189671e-02
-7.539224716073575361e-02
-7.276982703917520001e-02
-6.997682040098344991e-02
-6.699147635997693140e-02
-6.379876693304163682e-02
-6.039038704013723752e-02
-5.676475450429258746e-02
-5.292701005161111472e-02
-4.888901731126479855e-02
-4.466936281550006049e-02
-4.029335599963194958e-02
-3.579302920205044980e-02
-3.120713766421363486e-02
-2.651943346233080062e-02
-2.165587514917339043e-02
-1.660754577774851276e-02
-1.136719593081535196e-02
-5.928673328310051643e-03
-2.869228273360523163e-04
5.562013577825927063e-03
1.162099675572828353e-02
1.789179043774578870e-02
2.437506121808641693e-02
3.107037855378051369e-02
3.797621476469030533e-02
4.508994503350619715e-02
5.240784740574158662e-02
5.992510278974397253e-02
6.763579495668189945e-02
7.553291054055914777e-02
8.360833903819958612e-02
9.185287280926256182e-02
1.002562070762273994e-01
1.088069399244093738e-01
1.174925723019434320e-01
1.262995080198001663e-01
1.352130537517702014e-01
1.442174190344799045e-01
1.532957162673753981e-01
1.624299607127389633e-01
1.716010704956714705e-01
1.807888666041115033e-01
1.899720728888157073e-01
1.991283160633778582e-01
2.082345913958204286e-01
2.172951831075430884e-01
2.262940749590731659e-01
2.351960191622419483e-01
2.439671767538088287e-01
2.525751166707309037e-01
2.609885664152034046e-01
2.691770746375688472e-01
2.771115145455177453e-01
2.847641681716833739e-01
2.921087263736292794e-01
2.991202888338617139e-01
3.057753640598174782e-01
3.120518693838751356e-01
3.179291309633442975e-01
3.233878837804768369e-01
3.284102716424555646e-01
3.329798471814044980e-01
3.370815718543798134e-01
3.407018159433781168e-01
3.438283585553288391e-01
3.464503876221016743e-01
3.485584999004983642e-01
3.501447009722611914e-01
3.512024228660340364e-01
3.517267388056899979e-01
3.517142949483470504e-01
3.511631497258038692e-01
3.500727703947956737e-01
3.484440330369933392e-01
3.462792225590055062e-01
3.435820326923758050e-01
3.403575659935858533e-01
3.366123338440519808e-01
3.323542564501291707e-01
3.275844223152772905e-01
3.222743458129286309e-01
3.164492568250916738e-01
3.101424176259357512e-01
3.033864410102000697e-01
2.962132902932035350e-01
2.886542793108343163e-01
2.807400724195611708e-01
2.725006844964213415e-01
2.639654809390332701e-01
2.551631776655834405e-01
2.461218411148395901e-01
2.368688882461372769e-01
2.274310865393942560e-01
2.178345539950950760e-01
2.081047591343070380e-01
1.982665209986638200e-01
1.883440091503822966e-01
1.783607436722455530e-01
1.683395951676199542e-01
1.583027847604375482e-01
1.482717961483446811e-01
1.382665126410869694e-01
1.283055868966840873e-01
1.184070137611554219e-01
1.085881386011039451e-01
9.886565730369954730e-02
8.925561627669446885e-02
7.977341244840727152e-02
7.043379326773960281e-02
6.125085670415970213e-02
5.223805124771892239e-02
4.340817590903468109e-02
3.477338021930719003e-02
2.634516423030392601e-02
1.813437851437414705e-02
1.015122416443475090e-02
2.405252793984423432e-03
-5.094633462910745647e-03
-1.234018195160250381e-02
-1.932378949687520858e-02
-2.603850240293179019e-02
-3.247801645340686605e-02
-3.863018307565677101e-02
-4.448998616762769170e-02
-5.006678223506102338e-02
-5.536987986283713192e-02
-6.040847465782885756e-02
-6.519164924891207580e-02
-6.972837328695588588e-02
-7.402750344483161049e-02
-7.809778341740437890e-02
-8.194784392154075281e-02
-8.558620269610171805e-02
-8.902126450194985940e-02
-9.226132112194196377e-02
-9.531455136093577862e-02
-9.818902104578421108e-02
-1.008926830253407264e-01
-1.034333771704542548e-01
-1.058188303739734382e-01
-1.080566565507431465e-01
-1.101543566376080585e-01
-1.121193185934085956e-01
-1.139588173989849879e-01
-1.156800150571735547e-01
-1.172899605928101885e-01
-1.187955900527270792e-01
-1.202037265057559201e-01
-1.215210800427243831e-01
-1.227542477764598239e-01
-1.239097105912350394e-01
-1.249930707456427814e-01
-1.260080700521288566e-01
-1.269580947030329310e-01
-1.278464179126935496e-01
-1.286761999174460547e-01
-1.294504879756244731e-01
-1.301722163675603505e-01
-1.308442063955831958e-01
-1.314691663840204527e-01
-1.320496916791970843e-01
-1.325882646494365436e-01
-1.330872546850596083e-01
-1.335489181983851303e-01
-1.339753986237298966e-01
-1.343687264174081575e-01
-1.347308190577327647e-01
-1.350634810450139500e-01
-1.353684039015596863e-01
-1.356471661716760480e-01
-1.359012503432828756e-01
-1.361322672404463030e-01
-1.363418945772312818e-01
-1.365317013884180808e-01
-1.367031437307849873e-01
-1.368575646831080572e-01
-1.369958192909614680e-01
-1.371102452090104951e-01
-1.371977404140573287e-01
-1.372586758073089386e-01
-1.372933454237315609e-01
-1.373019664320525579e-01
-1.372846791347588080e-01
-1.372415469680987599e-01
-1.371725565020801563e-01
-1.370776174404718384e-01
-1.369565626208023301e-01
-1.368091480143613092e-01
-1.366350527261983028e-01
-1.364338789951232700e-01
-1.362051521937066578e-01
-1.359483208282791233e-01
-1.356627565389320056e-01
-1.353477540995168260e-01
-1.350025314176452884e-01
-1.346262295346897508e-01
-1.342179126257828647e-01
-1.337765679998176305e-01
-1.333011060994473418e-01
-1.327903605010858079e-01
-1.322430879149071870e-01
-1.316580979046815814e-01
-1.310354766382860192e-01
-1.303760384437103736e-01
-1.296805314443174595e-01
-1.289496268972301629e-01
-1.281839191933318300e-01
-1.273839258572662669e-01
-1.265500875474376008e-01
-1.256827680560103355e-01
-1.247822543089092961e-01
-1.238487563658197538e-01
-1.228824074201873146e-01
-1.218832637992179613e-01
-1.208513049638779147e-01
-1.197864335088941745e-01
-1.186884751627535206e-01
-1.175571787877037755e-01
-1.163922163797523335e-01
-1.151931830686677982e-01
-1.139595971179784700e-01
-1.126908999249736920e-01
-1.113864560207022680e-01
-1.100455530699741558e-01
-1.086674018713594259e-01
-1.072511363571888310e-01
-1.057958135935526262e-01
-1.043004137803023035e-01
-1.027638402510493154e-01
-1.011849194731658103e-01
-9.956240104778388278e-02
-9.789514185678412084e-02
-9.620415742473481524e-02
-9.448925079921340064e-02
-9.272915254977320831e-02
-9.090333070568362706e-02
-8.899199075593278163e-02
-8.697607564922543721e-02
-8.483726579398609413e-02
-8.255797905835436656e-02
-8.012137077018885445e-02
-7.751133371706493691e-02
-7.471249814627746455e-02
-7.171023176483734551e-02
-6.849063973947297490e-02
-6.504056469663012374e-02
-6.134758672247479783e-02
-5.740002336288828333e-02
-5.318692962346955461e-02
-4.869809796953420561e-02
-4.392405832612004263e-02
-3.885607827713957740e-02
-3.348620402191090223e-02
-2.780731052492226713e-02
-2.181302248467965887e-02
-1.549770205939988987e-02
-8.856448867020208504e-03
-1.885099985191721061e-03
5.419770048707889254e-03
1.306084923759150140e-02
2.104008812465174572e-02
2.935869979336731828e-02
3.801715986748871456e-02
4.701520651105901144e-02
5.635184042840039181e-02
6.607696483634262208e-02
7.621425619552248121e-02
8.666759987076298744e-02
9.734328952925665190e-02
1.081514092151850959e-01
1.190058333497005794e-01
1.298242267309537012e-01
1.405280574244047453e-01
1.510427831263836118e-01
1.612978086242378983e-01
1.712263333105570329e-01
1.807653469549107550e-01
1.898556297038564711e-01
1.984417520809249325e-01
2.064720749866430782e-01
2.138987496985180758e-01
2.206777178710419007e-01
2.267687115356933902e-01
2.321352531009276965e-01
2.367446553521932173e-01
2.405680214519193560e-01
2.435802449395216840e-01
2.457600097313959731e-01
2.470897901209268555e-01
2.475558507784820506e-01
2.471482467514132808e-01
2.458608234640570211e-01
2.436912167177345545e-01
2.406408526907511947e-01
2.367149479383954536e-01
2.319225093929447590e-01
2.262763343636560731e-01
2.197930105367732478e-01
2.124904332368601489e-01
2.044161993525708265e-01
1.956613674439857953e-01
1.863150455450582332e-01
1.764624862063163824e-01
1.661874153139154819e-01
1.555709430357093970e-01
1.446900856136867641e-01
1.336177471116931914e-01
1.224227194154502707e-01
1.111696822325294043e-01
9.991920309236707043e-02
8.872773734625936937e-02
7.764762816737752482e-02
6.672710655074269581e-02
5.601029131324097854e-02
4.553718909361848671e-02
3.534369435249564567e-02
2.546158937234318728e-02
1.591854425749725938e-02
6.738116934154207704e-03
-2.060246849616968745e-03
-1.046121352389585077e-02
-1.845356169689506970e-02
-2.603018215496921001e-02
-3.318807786260095233e-02
-3.992836396241904867e-02
-4.625626777518669630e-02
-5.218112879980769947e-02
-5.771639871331683130e-02
-6.287964137089234462e-02
-6.769253280584758281e-02
-7.218086122963650320e-02
-7.630124158036459547e-02
-7.999793198155927265e-02
-8.344104339630019351e-02
-8.679949711934907552e-02
-9.023315173799358047e-02
-9.389280313204985406e-02
-9.792018447386063862e-02
-1.024479662282970910e-01
-1.075997561527536339e-01
-1.134900992971553668e-01
-1.202244780039534167e-01
-1.278993119081290597e-01
-1.366019579371816617e-01
-1.464107103111463026e-01
-1.573948005425823971e-01
-1.696143974365819929e-01
-1.831206070907480665e-01
-1.979742521811846123e-01
-2.139682850155779081e-01
-2.300474541222128910e-01
-2.450882859789671742e-01
-2.580076260328821869e-01
-2.677650519664333539e-01
-2.733656806960709784e-01
-2.738556158093648496e-01
-2.683212665733138436e-01
-2.558893479343332666e-01
-2.357268805182479721e-01
-2.070411906303298855e-01
-1.690799102552475730e-01
-1.211309770570950378e-01
-6.252263437935960677e-02
7.392994743635961791e-03
9.036178654882762173e-02
1.849672140685938992e-01
2.879947988386152846e-01
3.962806136697766268e-01
5.067112826484394539e-01
6.162239811362654196e-01
7.218064357703013467e-01
8.204969244627988711e-01
9.093842764014916646e-01
9.856078720494082512e-01
1.046357633847356139e+00
1.088873879341009987e+00
1.110447347766355453e+00
1.108419325712272085e+00
1.080213953480058109e+00
1.026315776925298184e+00
9.515589375576379849e-01
8.606724202658956324e-01
7.580332323180074550e-01
6.476664033612139493e-01
5.332449854217824470e-01
4.180900529051893022e-01
3.051707025960235797e-01
1.971040536581927516e-01
9.615524763461380520e-02
4.237448447419051023e-03
-7.708815760212894830e-02
-1.466123618334954082e-01
-2.034112090886329716e-01
-2.475149551126541170e-01
-2.798901365471981872e-01
-3.015474553235550359e-01
-3.135201443032811230e-01
-3.168639672781353722e-01
-3.126572189700922433e-01
-3.020007250313533342e-01
-2.860178420443351133e-01
-2.658544575216745809e-01
-2.426789899062169187e-01
-2.176818357236903756e-01
-1.920705449520871133e-01
-1.670721700966774081e-01
-1.439362606847753301e-01
-1.236653294268190151e-01
-1.061328793054894803e-01
-9.113734301745829436e-02
-7.848870939887173104e-02
-6.799350742878568221e-02
-5.945480622918498936e-02
-5.267221506495427252e-02
-4.744188334389715794e-02
-4.355650061673015799e-02
-4.080529657709008884e-02
-3.897404106152265596e-02
-3.784504404948922651e-02
-3.719715566336490725e-02
-3.680576616844248583e-02
-3.649583240388259986e-02
-3.626459979061516514e-02
-3.608595841085792538e-02
-3.593215229950094680e-02
-3.577700535345525179e-02
-3.559592133165939698e-02
-3.536588385507338783e-02
-3.506545640668522895e-02
-3.467478233150388112e-02
-3.417558483656599200e-02
-3.355116699092917237e-02
-3.278641172567996198e-02
-3.186778183392571101e-02
-3.078331997079870874e-02
-2.952264865345662764e-02
-2.807697026108381747e-02
-2.643906703488536902e-02
-2.460330107809133998e-02
-2.256561435595721282e-02
-2.032252239042029937e-02
-1.786409788101802482e-02
-1.517800121665839087e-02
-1.225296563156612860e-02
-9.078809809735858410e-03
-5.646437884922049510e-03
-1.947839440647275433e-03
2.023910489804013613e-03
6.274651423370792430e-03
1.080913742723693671e-02
1.563103711881714403e-02
2.074293366576417455e-02
2.614632478595371734e-02
3.184161789208216770e-02
3.782734654747779007e-02
4.409930559357001789e-02
5.065199624567222336e-02
5.747883426934446288e-02
6.457214998037735798e-02
7.192318824479929096e-02
7.952210847886181933e-02
8.735798464906126271e-02
9.541880527212559526e-02
1.036914734150205242e-01
1.121618066949343628e-01
1.208145372793007072e-01
1.296333118857844469e-01
1.386006917822891482e-01
1.476981527869391242e-01
1.569060852681057883e-01
1.662037941443914590e-01
1.755694988846359383e-01
1.849803335079013011e-01
1.944123465834960429e-01
2.038405012309593423e-01
2.132386751200681663e-01
2.225796719091298614e-01
2.318354191539469811e-01
2.409769422007034811e-01
2.499829379975675170e-01
2.588624235329162748e-01
2.675877647951589999e-01
2.761277841615690232e-01
2.844531274991112246e-01
2.925362641644300155e-01
3.003514870038698215e-01
3.078749123534601506e-01
3.150844800389237532e-01
3.219599533756633547e-01
3.284829191687801409e-01
3.346367877130611568e-01
3.404067927929858572e-01
3.457799916827160591e-01
3.507452651461094861e-01
3.552933174367103319e-01
3.594166762977551444e-01
3.631096929621648872e-01
3.663685421525536556e-01
3.691912220812237355e-01
3.715775544501659367e-01
3.735291844510629233e-01
3.750495807652848290e-01
3.761440355638909772e-01
3.768196645076285489e-01
3.770848024043617075e-01
3.769439288560391677e-01
3.764002355343067374e-01
3.754587057308676479e-01
3.741261462271242566e-01
3.724111872941590073e-01
3.703242826927463094e-01
3.678777096733476526e-01
3.650855689761204337e-01
3.619637848309075201e-01
3.585301049572396925e-01
3.548041005643350898e-01
3.507865183449290214e-01
3.464716965674505267e-01
3.418860473363103392e-01
3.370552699093410376e-01
3.320040309907245080e-01
3.267559647309760118e-01
3.213336727269490156e-01
3.157587240218338032e-01
3.100516551051736291e-01
3.042319699128368526e-01
2.983181398270402518e-01
2.923276036763309271e-01
2.862767677356111706e-01
2.801810057261071019e-01
2.740546588153943697e-01
2.679110356173787788e-01
2.617624121923205482e-01
2.556200320468050013e-01
2.494941061337657418e-01
2.433938128524673061e-01
2.373272980485283123e-01
2.313016750138940925e-01
2.253230244868525411e-01
2.193963946520350317e-01
2.135258011404050082e-01
2.077142270292782755e-01
2.019636228422977409e-01
1.962749065494525658e-01
1.906479635670654815e-01
1.850816467578098312e-01
1.795737764306879203e-01
1.741211403410468928e-01
1.687194936905684894e-01
1.633635591272838417e-01
1.580470267455546529e-01
1.527625540860850506e-01
1.475082890447801942e-01
1.422985327469680761e-01
1.371190182613545860e-01
1.319572317884456780e-01
1.268105117354390021e-01
1.216775409770949057e-01
1.165571666695356945e-01
1.114484002502529325e-01
1.063504174381034728e-01
1.012625582333173402e-01
9.618432691748660113e-02
9.111539205357284399e-02
8.605558648590472259e-02
8.100490734017905259e-02
7.596351602345960408e-02
7.093173822417750407e-02
6.591006391213163895e-02
6.089914733848818262e-02
5.589980703578090182e-02
5.091302581791114223e-02
4.593995078014811995e-02
4.098189329912696466e-02
3.604032903285180056e-02
3.111689792069378957e-02
2.621340418339108969e-02
2.133181632305237996e-02
1.647424603793254394e-02
1.164254754217718124e-02
6.838349945824301335e-03
2.063432044024426926e-03
-2.680263086709655518e-03
-7.390628088492404157e-03
-1.206539132207291171e-02
-1.670211686683062413e-02
-2.129820452078289711e-02
-2.585088980057452523e-02
-3.035724394148426458e-02
-3.481417389742350044e-02
-3.921842234093465135e-02
-4.356656766319754598e-02
-4.785502397401948660e-02
-5.208004110184191043e-02
-5.623770459373718389e-02
-6.032393571541543736e-02
-6.433449145121378221e-02
-6.826496450410404759e-02
-7.211078329568858247e-02
-7.586721196620752061e-02
-7.952935037452799061e-02
-8.309213409815208173e-02
-8.655033443321388797e-02
-8.989855839447866148e-02
-9.313124871534830818e-02
-9.624324287423480229e-02
-9.923429017953100395e-02
-1.021066813153667374e-01
-1.048625679416238937e-01
-1.075039374368138012e-01
-1.100326128980810003e-01
-1.124502531412014811e-01
-1.147583527005872628e-01
-1.169582418292799825e-01
-1.190510864989540174e-01
-1.210378883999170541e-01
-1.229194849411073404e-01
-1.246965492500999861e-01
-1.263664262538371497e-01
-1.279259595621567991e-01
-1.293793269489324216e-01
-1.307306479559380286e-01
-1.319838363927110514e-01
-1.331426003365564215e-01
-1.342104421325453489e-01
-1.351906583935178485e-01
-1.360863400000784096e-01
-1.369003721005986052e-01
-1.376354341112167035e-01
-1.382939997158380008e-01
-1.388783368661350437e-01
-1.393905077815457139e-01
-1.398323689492750321e-01
-1.402055711242949365e-01
-1.405115593293443932e-01
-1.407515728549280920e-01
-1.409266452593178065e-01
-1.410376043685520886e-01
-1.410850722764364629e-01
-1.410694653445425106e-01
-1.409909942022084806e-01
-1.408496637465401213e-01
-1.406452731424087665e-01
-1.403774158224531665e-01
-1.400454794870783781e-01
-1.396486461044564864e-01
-1.391858919105257442e-01
-1.386559874089915712e-01
-1.380574973713253328e-01
-1.373887808367661723e-01
-1.366479911123191504e-01
-1.358330757727559401e-01
-1.349417766606148539e-01
-1.339716298862015931e-01
-1.329199658275876939e-01
-1.317839134714107185e-01
-1.305609630295503643e-01
-1.292495232824169005e-01
-1.278479297488483157e-01
-1.263543122154498211e-01
-1.247665947365917682e-01
-1.230824956344132581e-01
-1.212995274988189626e-01
-1.194149971874803040e-01
-1.174260058258360245e-01
-1.153352627000014119e-01
-1.131724954608007705e-01
-1.109146631239928404e-01
-1.085302007314217915e-01
-1.059897867234690511e-01
-1.032663429390587306e-01
-1.003350346156514639e-01
-9.717327038924844507e-02
-9.376070229438709935e-02
-9.007922576414864602e-02
-8.611297963015010493e-02
-8.184834612254865416e-02
-7.727395087003915974e-02
-7.238066289985951862e-02
-6.716159463778287320e-02
-6.161206361281404420e-02
-5.572879077031911432e-02
-4.950992253748301430e-02
-4.295581485878663397e-02
-3.606906707725160421e-02
-2.885452193443589775e-02
-2.131926557044408477e-02
-1.347262752391292784e-02
-5.326180732020402431e-03
3.106258469519951326e-03
1.180863034644383247e-02
2.076263176596065962e-02
2.994771619673486374e-02
3.934109370889700419e-02
4.891773097402526971e-02
5.865035126517287312e-02
6.851531122453075051e-02
7.854401243290876078e-02
8.865948077485591439e-02
9.875500960213234869e-02
1.087296713374258789e-01
1.184883174743622536e-01
1.279415785774872527e-01
1.370058642822926664e-01
1.456033632952009604e-01
1.536620433935696473e-01
1.611158984456364796e-01
1.679068695883554896e-01
1.739838011867013701e-01
1.793013262014061249e-01
1.838198566641277565e-01
1.875055836774656426e-01
1.903304774149500167e-01
1.922722871210451046e-01
1.933145411111443779e-01
1.934465467715788534e-01
1.926633905596116247e-01
1.909659380034386955e-01
1.883608337021887291e-01
1.848605013259260188e-01
1.804831436156453250e-01
1.752527423832746512e-01
1.691990585116792956e-01
1.623576319546535529e-01
1.547697817369258766e-01
1.464826059541560477e-01
1.375489817729451669e-01
1.280267736671813761e-01
1.179540962240990809e-01
1.074027750348333088e-01
9.646043017021488364e-02
8.521026411557725000e-02
7.373106177077200230e-02
6.209719045016205696e-02
5.037859988263695965e-02
3.864082221158837704e-02
2.694497199492702777e-02
1.534774620507350917e-02
3.901424228976546615e-03
-7.346132131913735153e-03
-1.835147866162831209e-02
-2.907558872968801778e-02
-3.948385329108497488e-02
-4.954608088631118346e-02
-5.923649764133875895e-02
-6.853374726762864744e-02
-7.742089106211705318e-02
-8.588540790723611651e-02
-9.391919427089945316e-02
-1.015185642065086769e-01
-1.086842493529427967e-01
-1.154213989345747315e-01
-1.217395797612596531e-01
-1.276527762283396483e-01
-1.331793903166371140e-01
-1.383422415924649151e-01
-1.431685663141009368e-01
-1.476849358132845125e-01
-1.518852161060469941e-01
-1.558399238021623279e-01
-1.596468494200076194e-01
-1.634119189472451050e-01
-1.672491938408179613e-01
-1.712808710269576595e-01
-1.756372829011780545e-01
-1.804568973282799360e-01
-1.858863176423433961e-01
-1.920802826467373214e-01
-1.992016666141136483e-01
-2.074214792864127743e-01
-2.169188658748487375e-01
-2.278811070599299216e-01
-2.405411557280929813e-01
-2.548869855677541318e-01
-2.703774844106611175e-01
-2.863948721833421418e-01
-3.022683196946132078e-01
-3.172739486355917737e-01
-3.306348315796688309e-01
-3.415209919825504259e-01
-3.490494041822295723e-01
-3.522839933989940775e-01
-3.502356863249023733e-01
-3.418635817996432125e-01
-3.260749837573653220e-01
-3.017242041948105524e-01
-2.676125059910482440e-01
-2.230604516414410876e-01
-1.678179400868979876e-01
-1.015432570304251603e-01
-2.439534940072643487e-02
6.296536763380367052e-02
1.593770106649685658e-01
2.631762280447962898e-01
3.721981998855881102e-01
4.837766380597249283e-01
5.947437861999556041e-01
7.014304196992054985e-01
7.996658457106669005e-01
8.847779031476279421e-01
9.514620851712620730e-01
9.950624714531184356e-01
1.015289720097008130e+00
1.012755891987383139e+00
9.884561614254949724e-01
9.437688161293560363e-01
8.804552572337180916e-01
8.006596991156615939e-01
7.069069219372507984e-01
6.021035345687579809e-01
4.895392494610589784e-01
3.728868924819560560e-01
2.562024029158727623e-01
1.439248334640536864e-01
4.086459864748612225e-02
-5.086858824619470976e-02
-1.315735549501632351e-01
-2.007749804816776062e-01
-2.582143285325618765e-01
-3.038498474691043727e-01
-3.378565703322189417e-01
-3.606263148373309857e-01
-3.727676833744135720e-01
-3.751060630079635638e-01
-3.686836254770428090e-01
-3.547593271952447780e-01
-3.348089092506983944e-01
-3.105248974060969003e-01
-2.837600389740200235e-01
-2.557778666360099873e-01
-2.274731087634789262e-01
-1.996428951395534668e-01
-1.729539564859111922e-01
-1.479426244628208043e-01
-1.250148316691239436e-01
-1.044461116422714109e-01
-8.638159885826859896e-02
-7.083602873171246372e-02
-5.769373761577690357e-02
-4.670866280223121697e-02
-3.750434252141290198e-02
-2.957391594224651268e-02
-2.236231994797251849e-02
-1.582340278143540974e-02
-9.873487711796857802e-03
-4.395473977838536273e-03
7.159210498041898574e-04
5.554161868639603122e-03
1.020089484432380733e-02
1.472594821065796589e-02
1.918733206958923160e-02
2.363123839120865807e-02
2.809204101375515142e-02
3.259229564361304510e-02
3.714273985531099664e-02
4.174229309152306666e-02
4.637805666307079355e-02
5.102533232231475785e-02
5.567093348164913608e-02
6.035411660586156857e-02
6.508747992828833873e-02
6.988120216845497557e-02
7.474490629419983101e-02
7.968765952166884103e-02
8.471797331532332498e-02
8.984380338793575282e-02
9.507254970059159094e-02
1.004110564626827101e-01
1.058656121319174193e-01
1.114419494143149419e-01
1.171452452642078867e-01
1.229801208842337401e-01
1.289506417253490356e-01
1.350603174868184875e-01
1.413121021162223045e-01
1.477083938094437277e-01
1.542510350106870987e-01
1.609413124124626226e-01
1.677799569555984971e-01
1.747671438292236201e-01
1.819240200847153655e-01
1.892818807779646229e-01
1.968232472178364778e-01
2.045294536661781404e-01
2.123818723029807232e-01
2.203631401288303482e-01
2.284572649634626917e-01
2.366483137868589381e-01
2.449203437151308282e-01
2.532574020005064486e-01
2.616435260313363376e-01
2.700627433320790249e-01
2.784990715633240965e-01
2.869365185217774283e-01
2.953590821402671818e-01
3.037507504877291487e-01
3.120955017692312872e-01
3.203773043259562359e-01
3.285801166352110281e-01
3.366878873104082737e-01
3.446845551010940256e-01
3.525540488929284622e-01
3.602802877076961563e-01
3.678471807032877017e-01
3.752386271737264689e-01
3.824385165491507310e-01
3.894307283958217125e-01
3.961991324161093786e-01
4.027271622768758275e-01
4.089947434186880226e-01
4.149800757845900079e-01
4.206613376416318273e-01
4.260166973929923051e-01
4.310243135779663892e-01
4.356623348719712574e-01
4.399089000865353261e-01
4.437421381693146261e-01
4.471401682040822001e-01
4.500810994107318219e-01
4.525430311452711685e-01
4.545040528998334217e-01
4.559422443026684424e-01
4.568356751181470998e-01
4.571624052467581079e-01
4.568961032297542690e-01
4.560157452892854013e-01
4.545361034448868187e-01
4.524745345899119919e-01
4.498485345017888548e-01
4.466757378420170843e-01
4.429739181561704320e-01
4.387609878738930602e-01
4.340549983089080910e-01
4.288741396590067256e-01
4.232367410060549062e-01
4.171612703159894298e-01
4.106663344388269410e-01
4.037706791086505542e-01
3.964931889436190127e-01
3.888528874459608042e-01
3.808689370019865961e-01
3.725606388820713044e-01
3.639474332406667512e-01
3.550488991162923380e-01
3.458847544315539202e-01
3.364748559931183269e-01
3.268391994917282939e-01
3.169979195021978002e-01
3.069712894834241146e-01
2.967797217783669228e-01
2.864437676140618727e-01
2.759841171016146344e-01
2.654215992362165544e-01
2.547771818971186764e-01
2.440719718476498934e-01
2.333272147352082881e-01
2.225642950912774809e-01
2.118047363314016773e-01
2.010702024515246822e-01
1.903826619429844769e-01
1.797645244407236054e-01
1.692383706310423008e-01
1.588269200843183959e-01
1.485530312549987464e-01
1.384397014816162730e-01
1.285100669867643430e-01
1.187874028771126744e-01
1.092951231434022841e-01
1.000532451005673451e-01
9.104994182478576281e-02
8.228098128478096573e-02
7.374642709361066417e-02
6.544602559496918992e-02
5.737920586316798410e-02
4.954507970314932230e-02
4.194244165047955608e-02
3.456976897136133930e-02
2.742522166261486538e-02
2.050664245169129402e-02
1.381155679666595804e-02
7.337172886249507253e-03
1.080381639771005320e-03
-4.962243292809434547e-03
-1.079444553090755377e-02
-1.642028596330502577e-02
-2.184414274816257051e-02
-2.707074750162653809e-02
-3.210622076187050200e-02
-3.695822467254918087e-02
-4.163480554193137173e-02
-4.614432694765889520e-02
-5.049546973674580441e-02
-5.469723202557565112e-02
-5.875892919990839680e-02
-6.269019391487701265e-02
-6.650097609498636930e-02
-7.020154293411239033e-02
-7.380247889550639595e-02
-7.731468571179055116e-02
-8.074938238496320864e-02
-8.411810518639109557e-02
-8.743270765681641910e-02
-9.070536060635292497e-02
-9.394855211449011645e-02
-9.717508753008644029e-02
-1.003980894713752542e-01
-1.036309978259611353e-01
-1.068794305385656895e-01
-1.101434236273816786e-01
-1.134294594474818951e-01
-1.167360874340965804e-01
-1.200579884277842291e-01
-1.233896748167016277e-01
-1.267255134654391435e-01
-1.300597257150270247e-01
-1.333863873829321256e-01
-1.366994287630640681e-01
-1.399926346257660825e-01
-1.432596442178212526e-01
-1.464939512624493512e-01
-1.496889039593130022e-01
-1.528377049845083269e-01
-1.559334114905712443e-01
-1.589689351064757228e-01
-1.619370419376326975e-01
-1.648303525658960378e-01
-1.676413420495528050e-01
-1.703623399233300251e-01
-1.729855301983915239e-01
-1.755029513623436732e-01
-1.779064963792267307e-01
-1.801879126895205296e-01
-1.823388022101418149e-01
-1.843506213344491274e-01
-1.862146809322368646e-01
-1.879221463497371403e-01
-1.894640374096208668e-01
-1.908312284109963675e-01
-1.920144481294132621e-01
-1.930042798168558060e-01
-1.937911612017482743e-01
-1.943653844889516868e-01
-1.947170963597683047e-01
-1.948361876320298391e-01
-1.947104414105671755e-01
-1.943305850486836683e-01
-1.936885969968989984e-01
-1.927763277601840519e-01
-1.915854998979635571e-01
-1.901077080241161399e-01
-1.883344188069735192e-01
-1.862569709693205344e-01
-1.838665752883955895e-01
-1.811543145958904311e-01
-1.781111437779507867e-01
-1.747278897751738391e-01
-1.709952515826113073e-01
-1.669038002497695850e-01
-1.624439788806076035e-01
-1.576062099532563598e-01
-1.523903729293376585e-01
-1.468132391023914962e-01
-1.408932015884822586e-01
-1.346485255581292284e-01
-1.280973482362998961e-01
-1.212576789024207846e-01
-1.141473988903691228e-01
-1.067842615884782298e-01
-9.918589243952832812e-02
-9.136978894075925561e-02
-8.335332064386216655e-02
-7.515372915498391704e-02
-6.678812813471740606e-02
-5.827350329811645246e-02
-4.962671241468538663e-02
-4.086448530838219378e-02
-3.200342385762056790e-02
-2.306000199525987115e-02
-1.405056570862059373e-02
-4.991333039474472877e-03
4.101605915951732351e-03
1.321228900698481062e-02
2.232488202849121015e-02
3.142367872088604186e-02
4.049310077012893694e-02
4.951643729255053583e-02
5.845871555456014917e-02
6.731159075600484654e-02
7.607724421747638632e-02
8.475805566665257917e-02
9.335677397273334233e-02
1.018755739087061213e-01
1.103159964409574506e-01
1.186789487292668199e-01
1.269647041268179843e-01
1.351729021801837405e-01
1.433025486293360018e-01
1.513520154076387625e-01
1.593190406418602267e-01
1.672007286521585423e-01
1.749935499520910154e-01
1.826933412486074770e-01
1.902953054420564727e-01
1.977940116261855674e-01
2.051833950881361834e-01
2.124567573084422678e-01
2.196067659610379530e-01
2.266254549132548646e-01
2.335042242258205114e-01
2.402338401528522904e-01
2.468072269785678285e-01
2.532381309920180845e-01
2.595496127382751483e-01
2.657641534391845806e-01
2.719036005099969566e-01
2.779891675593566536e-01
2.840543884577850786e-01
2.901732828389168573e-01
2.963016051601232159e-01
3.023781762533958029e-01
3.083441426702119292e-01
3.141429766815215796e-01
3.197204762777712261e-01
3.250247651688875639e-01
3.300062927842812854e-01
3.346178342728373112e-01
3.388144905029365495e-01
3.425536880624382996e-01
3.457951792586921314e-01
3.485010421185129048e-01
3.506356803882172413e-01
3.521658235335993758e-01
3.530605267399421487e-01
3.532911709119961330e-01
3.528314626740115534e-01
3.516574343697171923e-01
3.497474440623294378e-01
3.470821755345347981e-01
3.436446382885171569e-01
3.394201675459395107e-01
3.343964242479491311e-01
3.285633950551766214e-01
3.219133923477315862e-01
3.144410542252141227e-01
3.061433445067039960e-01
2.970195527307691874e-01
2.870712941554522390e-01
2.762957677905450438e-01
2.647283836938457147e-01
2.524750854751826035e-01
2.396416366444680812e-01
2.263305499056657843e-01
2.126410871567758210e-01
1.986692594898522291e-01
1.845078271909828815e-01
1.702462997402964251e-01
1.559709358119656386e-01
1.417647432742164815e-01
1.277074791893064165e-01
1.138756498135361506e-01
1.003424038709233301e-01
8.716888904242921232e-02
7.439788395019632239e-02
6.206741544155174040e-02
5.021225955786338957e-02
3.886394153455427491e-02
2.805073580107661502e-02
1.779766598093057706e-02
8.126504891653701934e-03
-9.442254551602913271e-04
-9.399253853888012156e-03
-1.722655990485888466e-02
-2.441737401436258614e-02
-3.096617739463711216e-02
-3.687070206388642912e-02
-4.213193084626970508e-02
-4.675409737190308612e-02
-5.074468607686076493e-02
-5.411463457161280743e-02
-5.690096657297472049e-02
-5.913538239994614587e-02
-6.084347876766076080e-02
-6.206298125185520653e-02
-6.284374428887637420e-02
-6.324775117567651983e-02
-6.334911406981215409e-02
-6.323407398944494440e-02
-6.300100081334517044e-02
-6.276039328088807434e-02
-6.263487899205721909e-02
-6.275923399417164539e-02
-6.328108915064260820e-02
-6.436112720067733994e-02
-6.617221945670923033e-02
-6.889936609176640359e-02
-7.273969613949381186e-02
-7.790246749413869132e-02
-8.460906691056083173e-02
-9.307900334777688411e-02
-1.031903397800295885e-01
-1.144253024285420417e-01
-1.261876676712842538e-01
-1.378182758876891623e-01
-1.485950314586907128e-01
-1.577329027667022376e-01
-1.643839221956234220e-01
-1.676371861308240951e-01
-1.665188549591691825e-01
-1.599921530690044946e-01
-1.469573688501523423e-01
-1.262518546939325748e-01
-9.665349775804034371e-02
-5.771172295702579891e-02
-8.794725113396220997e-03
5.091673239753880670e-02
1.217089073331691501e-01
2.033350785835091046e-01
2.950155461712526406e-01
3.954376312516152403e-01
5.027556761125678841e-01
6.145910441746875730e-01
7.280321199912392904e-01
8.396343092479796599e-01
9.454200387634554836e-01
1.040878756488805346e+00
1.120952650372091464e+00
1.181641395918027415e+00
1.221114709091672301e+00
1.238296874786256607e+00
1.232793176634585208e+00
1.204889897009056909e+00
1.155554317021648458e+00
1.086434716523913435e+00
9.998603741069462814e-01
8.988415671015428376e-01
7.870695715779664203e-01
6.689166623460953698e-01
5.494361129553366752e-01
4.341209641856217383e-01
3.251794920885107132e-01
2.239154153759858601e-01
1.317744866319874864e-01
4.989844835393694722e-02
-2.087496704751710952e-02
-8.001203724832539610e-02
-1.272830500111013508e-01
-1.627623031850387314e-01
-1.868281047060435796e-01
-2.001627725966409199e-01
-2.037526349659998792e-01
-1.988880300099279408e-01
-1.871556401710812723e-01
-1.697687564913960001e-01
-1.479887316853729928e-01
-1.232517953897538376e-01
-9.682761462451516810e-02
-6.981929379290513493e-02
-4.316337468142281142e-02
-1.762983645986268555e-02
6.177904318751911705e-03
2.782299371812385624e-02
4.703509839446386176e-02
6.370727449661332809e-02
7.789380589730188209e-02
8.981502777709249319e-02
9.985783793328933955e-02
1.085619074926659489e-01
1.161668050125818086e-01
1.227799283802715191e-01
1.285750342358933374e-01
1.337106675399619138e-01
1.383301615733564249e-01
1.425616379373157161e-01
1.465180065534379683e-01
1.502969656636800599e-01
1.539810018303602313e-01
1.576373899361582787e-01
1.613181931841126959e-01
1.650602630976211738e-01
1.688852395204428203e-01
1.727995506166960515e-01
1.767944128708623941e-01
1.808458310877780195e-01
1.849145983926435144e-01
1.889679320257712236e-01
1.930568396424930389e-01
1.971908342302475525e-01
2.013717185194041637e-01
2.056007823318254379e-01
2.098788025808704105e-01
2.142060432713871199e-01
2.185822554997225997e-01
2.230066937840148866e-01
2.274787830303375835e-01
2.319983519590569920e-01
2.365647806651779983e-01
2.411769363351980999e-01
2.458331732471117081e-01
2.505313327704002946e-01
2.552687433660464356e-01
2.600422205865250413e-01
2.648480670758077693e-01
2.696820725693523380e-01
2.745395138941192914e-01
2.794151549685596758e-01
2.843032468026207571e-01
2.891979236064826653e-01
2.941182768248620238e-01
2.990629476278277021e-01
3.040108531319061225e-01
3.089407009796669712e-01
3.138309893397042138e-01
3.186613596697431272e-01
3.234209863286560682e-01
3.281031027924116161e-01
3.327007511852712596e-01
3.372067641575497432e-01
3.416137648855957498e-01
3.459141670718001715e-01
3.501001749445813438e-01
3.541637832584046963e-01
3.580967772937733717e-01
3.618907328572327220e-01
3.655370162813548207e-01
3.690267844247584472e-01
3.723509846721010930e-01
3.755003549340809044e-01
3.784654236474256361e-01
3.812365097749064735e-01
3.838037228053353678e-01
3.861569627535643145e-01
3.882859201604724753e-01
3.901800760929908241e-01
3.918287021440793882e-01
3.932208604327458445e-01
3.943454036040233701e-01
3.951909748289969548e-01
3.957460078047801977e-01
3.959987267545338474e-01
3.959371464274465957e-01
3.955490720987559494e-01
3.948220995697300228e-01
3.937436151676821927e-01
3.923007957459568873e-01
3.904806086839425761e-01
3.882698118870663295e-01
3.856549537867900446e-01
3.826223733406143857e-01
3.791580848858652764e-01
3.752512867952033648e-01
3.709133863949840570e-01
3.661616886027693196e-01
3.610141434547838868e-01
3.554893461059158155e-01
3.496065368297112119e-01
3.433856010183838903e-01
3.368470691828073793e-01
3.300121169525180864e-01
3.229025650757139099e-01
3.155408794192570698e-01
3.079501709686711108e-01
3.001541958281413458e-01
2.921772644826758913e-01
2.840380038344013092e-01
2.757453309443435030e-01
2.673078502908707854e-01
2.587348114710101288e-01
2.500361092004599883e-01
2.412222833135727607e-01
2.323045187633659137e-01
2.232946456215157416e-01
2.142051390783704379e-01
2.050491194429330810e-01
1.958403521428699334e-01
1.865932477245060839e-01
1.773228618528412404e-01
1.680448953115267485e-01
1.587756940028783315e-01
1.495322489478708994e-01
1.403321962861540928e-01
1.311938172760287180e-01
1.221360382944600420e-01
1.131784308370723802e-01
1.043412115181659994e-01
9.564524207068869632e-02
8.711202934625825178e-02
7.876372531514741482e-02
7.062312706630594072e-02
6.271367680733085093e-02
5.505946186449038604e-02
4.768391810036748391e-02
4.057929220743963783e-02
3.373875859459177229e-02
2.716346025262647568e-02
2.085396909141193356e-02
1.480995747383836991e-02
9.030058654326197920e-03
3.512305831293305314e-03
-1.745831824775279095e-03
-6.747449171320307748e-03
-1.149620509372559218e-02
-1.599632250530522160e-02
-2.025258834730583879e-02
-2.427035358890124173e-02
-2.805553322720683029e-02
-3.161460628726897593e-02
-3.495461582206603468e-02
-3.808316891250491942e-02
-4.100843666743245186e-02
-4.373915422362620320e-02
-4.628462074579964974e-02
-4.865469942658923186e-02
-5.085981748657485146e-02
-5.291001279665770440e-02
-5.480923846039540553e-02
-5.655918024778589653e-02
-5.816207749446385827e-02
-5.962073356399368723e-02
-6.093851584787494252e-02
-6.211935576553386656e-02
-6.316774876433622898e-02
-6.408875431957876401e-02
-6.488799593449219583e-02
-6.557166114023735282e-02
-6.614650149591029538e-02
-6.661983258854002610e-02
-6.699953403308941957e-02
-6.729404947245204438e-02
-6.751238657745564642e-02
-6.766411704686162154e-02
-6.775937660736450208e-02
-6.780054426225938513e-02
-6.777734249400402256e-02
-6.769248093661769938e-02
-6.754896749548119916e-02
-6.734964456815731304e-02
-6.709718904438996545e-02
-6.679411230610490802e-02
-6.644276022741041343e-02
-6.604531317459608197e-02
-6.560378600613303579e-02
-6.512002807267425197e-02
-6.459572321705450704e-02
-6.403238977429083489e-02
-6.343138057158072274e-02
-6.279388292830474783e-02
-6.212091865602439866e-02
-6.141334405848351830e-02
-6.067184993160706918e-02
-5.989696156350211159e-02
-5.908903873445752603e-02
-5.824827571694372874e-02
-5.737470127561303257e-02
-5.646817866729941793e-02
-5.552840564101843568e-02
-5.455491443796805368e-02
-5.354707179152708163e-02
-5.250407892725662828e-02
-5.142497156289954630e-02
-5.030861990838014774e-02
-4.915372866580486333e-02
-4.795883702946100030e-02
-4.672231868581924741e-02
-4.544240219106271406e-02
-4.411846711036321311e-02
-4.275182398645482884e-02
-4.134380489062118580e-02
-3.989557638632763858e-02
-3.840813952922139674e-02
-3.688232986713126105e-02
-3.531748037896988157e-02
-3.371299816419129347e-02
-3.207168619927416864e-02
-3.039629951921355919e-02
-2.868947683037822646e-02
-2.695374051051098105e-02
-2.519149660872833929e-02
-2.340503484552088759e-02
-2.159652861275281749e-02
-1.976803497366215467e-02
-1.792149466286120651e-02
-1.605873208633575022e-02
-1.418145532144533816e-02
-1.229125611692375580e-02
-1.038960989287746051e-02
-8.477875740789488079e-03
-6.557296423514200057e-03
-4.628998375280315991e-03
-2.693991701691059171e-03
-7.531701797228798623e-04
1.192688742273559366e-03
3.142923944573737527e-03
5.096990636079483383e-03
7.054460354318517479e-03
9.015020965445014189e-03
1.097847666423909518e-02
1.294474196625011730e-02
1.491352018290625914e-02
1.688414136345572913e-02
1.885601181546500693e-02
2.082865417511950423e-02
2.280170740723830303e-02
2.477492680525944513e-02
2.674818399125405977e-02
2.872146691591237477e-02
3.069487985855801071e-02
3.266864342713332592e-02
3.464309455821475148e-02
3.661868651699604071e-02
3.859598889730581073e-02
4.057568762159106945e-02
4.255858494093237021e-02
4.454559943502894859e-02
4.653776601221353004e-02
4.853652990518364518e-02
5.054543849824701118e-02
5.256865098805559022e-02
5.459790716800454191e-02
5.664324781342769399e-02
5.872553972637513386e-02
6.086510181824661414e-02
6.308170510977947898e-02
6.539457273106356883e-02
6.782237992152603812e-02
7.038325402994514979e-02
7.309477451443813223e-02
7.597397294247189292e-02
7.903733299085380359e-02
8.230079044574012404e-02
8.577973320262664847e-02
8.948900126636079311e-02
9.344288675112823184e-02
9.765513388046334620e-02
1.021389389872423281e-01
1.069069505136892861e-01
1.119712690113703613e-01
1.173434471411978208e-01
1.230344896734260618e-01
1.290548534876601594e-01
1.354144475728447650e-01
1.421226330272697680e-01
1.491882230585708513e-01
1.566194829837274927e-01
1.644241302290691542e-01
1.726093343302569638e-01
1.811817169323116650e-01
1.901597000789054803e-01
1.995808728647710528e-01
2.093923009560393345e-01
2.195318758246332935e-01
2.299385511922991399e-01
2.405523430306278077e-01
2.513143295610217876e-01
2.621666512547382588e-01
2.730525108328564210e-01
2.839161732662993654e-01
2.947029657758041266e-01
3.053592778319599299e-01
3.158325611551791035e-01
3.260713297157177282e-01
3.360251597336451068e-01
3.456446896788841761e-01
3.548816202711814194e-01
3.636887144801166372e-01
3.720197698712394141e-01
3.798279870276367043e-01
3.870650569722096090e-01
3.936835117467126222e-01
3.996369456427413813e-01
4.048800152017127951e-01
4.093684392148888018e-01
4.130589987233574401e-01
4.159095370180453943e-01
4.178789596397056716e-01
4.189272343789315345e-01
4.190153912761443444e-01
4.180877498157945515e-01
4.161572048127430978e-01
4.132975121460438217e-01
4.095804804115082964e-01
4.050758845708436473e-01
3.998514659516545500e-01
3.939729322474363471e-01
3.875039575175774353e-01
3.805061821873597649e-01
3.730392130479679436e-01
3.651606232564699184e-01
3.569259523358338515e-01
3.483887061749147973e-01
3.396003570284769069e-01
3.306103435171641181e-01
3.214660706275198621e-01
3.122129097119760721e-01
3.028941984888738892e-01
2.935512410424331309e-01
2.842233078227742737e-01
2.749476356459055748e-01
2.657594276937443323e-01
2.566918641933768064e-01
2.477767650362328322e-01
2.390449792462399081e-01
2.305254159099189848e-01
2.222449504796728259e-01
2.142284247738028280e-01
2.064986469765005550e-01
1.990763916378621712e-01
1.919803996738678187e-01
1.852273783663948570e-01
1.787543593685626819e-01
1.725055819618088182e-01
1.665098841741698144e-01
1.607822146170704847e-01
1.553235735073563162e-01
1.501210126673017675e-01
1.451476355245978622e-01
1.403632530698180059e-01
1.357180200782861224e-01
1.311498688918006916e-01
1.265827881565324831e-01
1.219268181240792948e-01
1.170780506514590424e-01
1.119186292011166706e-01
1.063167488409161032e-01
1.001266562441479602e-01
9.318864968952059180e-02
8.532907906117481733e-02
7.636034584866566166e-02
6.608090314697617762e-02
5.427523156066782484e-02
4.069470152803497665e-02
2.540863363616188697e-02
8.720213885026834033e-03
-8.986048558038195466e-03
-2.724432135832244306e-02
-4.550744901377037910e-02
-6.314695285496202404e-02
-7.945303104511802772e-02
-9.363455858008407073e-02
-1.048190872883577873e-01
-1.120528458310763587e-01
-1.143007397020070204e-01
-1.104463512275624948e-01
-9.929193956679094324e-02
-7.955844071138250262e-02
-5.064340123680713401e-02
-1.208783238485475198e-02
3.699394064003978799e-02
9.701043387863995948e-02
1.678924936563264414e-01
2.490932965829494028e-01
3.395883495530352403e-01
4.378754897456502149e-01
5.419748846244888396e-01
6.494290319376765375e-01
7.573027597180526094e-01
8.621832262829906002e-01
9.601799202344765138e-01
1.046924660458944389e+00
1.117571596127535871e+00
1.167623675944771122e+00
1.195503020827061169e+00
1.200797162375022875e+00
1.183675351836121825e+00
1.144888719341724315e+00
1.085770273907075367e+00
1.008234833173080602e+00
9.147751692127961132e-01
8.084600117834029875e-01
6.929394786166587217e-01
5.724455663283980478e-01
4.517921504182127457e-01
3.357894813539071266e-01
2.261643989270858690e-01
1.245759613327772491e-01
3.251165027548069686e-02
-4.888335461993767450e-02
-1.188061758083303054e-01
-1.767962378241523247e-01
-2.227352672816388102e-01
-2.568472928746868278e-01
-2.796986453768856018e-01
-2.921979576414914237e-01
-2.955152963452072901e-01
-2.902730069113714229e-01
-2.779772846195698310e-01
-2.602986445464589016e-01
-2.387461204065066678e-01
-2.146672645520211475e-01
-1.892481479731368266e-01
-1.635133602978134926e-01
-1.383260097918724008e-01
-1.143877233589315479e-01
-9.223864654045267619e-02
-7.225744351572403745e-02
-5.466129710188437352e-02
-3.950590875388340639e-02
-2.668549856450605495e-02
-1.593280526436914590e-02
-6.858282926228004284e-03
8.025859279700842119e-04
7.237830048903076685e-03
1.262289894140122826e-02
1.712015412962863969e-02
2.087952252644242890e-02
2.403856486473018861e-02
2.672247569742047801e-02
2.904408339747237278e-02
3.110385015788595664e-02
3.298987199169758910e-02
3.477787873197979440e-02
3.653123403183786144e-02
3.830093536441869784e-02
4.012561402290143464e-02
4.203153512050623875e-02
4.403259759048350208e-02
4.613033418612605407e-02
4.831530909542740282e-02
5.057458103279809103e-02
5.288630422659021391e-02
5.521627468355505552e-02
5.751792223047658137e-02
5.981238733525401363e-02
6.218673868172724939e-02
6.465758788641426391e-02
6.724048508248028910e-02
6.995019436468624674e-02
7.280069378938860969e-02
7.580517537454366239e-02
7.897604509970540532e-02
8.232492290602533291e-02
8.586264269624807599e-02
8.959925233471957573e-02
9.354401364738323954e-02
9.770540242178096801e-02
1.020911084070443009e-01
1.067080353139099047e-01
1.115623008147101913e-01
1.166592365433763018e-01
1.220033880954295852e-01
1.275985150279957125e-01
1.334475908597965166e-01
1.395528030711527812e-01
1.459155531039745546e-01
1.525364563617772340e-01
1.594153422096709072e-01
1.665512539743674858e-01
1.739424489441642185e-01
1.815871231364853122e-01
1.895190719121750966e-01
1.977417201481575515e-01
2.062326592853066798e-01
2.149700071050843486e-01
2.239324077295234972e-01
2.330990316212372682e-01
2.424495755834001898e-01
2.519642627597756812e-01
2.616238426346972901e-01
2.714095910330788231e-01
2.813033101203957220e-01
2.912873284027115428e-01
3.013445007266617459e-01
3.114582082794605800e-01
3.216123585888843728e-01
3.317913855232982323e-01
3.419802492916373948e-01
3.521644364434163843e-01
3.623298295017937098e-01
3.724560427312770816e-01
3.825132368762765300e-01
3.924713019394285296e-01
4.023006542639301353e-01
4.119722365335652947e-01
4.214575177726896937e-01
4.307284933462367515e-01
4.397576849597072401e-01
4.485181406591852160e-01
4.569834348313245864e-01
4.651276682033641530e-01
4.729254678431045189e-01
4.803519871589296830e-01
4.873829058997973251e-01
4.939944301552407491e-01
5.001632923553656074e-01
5.058667512708563407e-01
5.110825920129706823e-01
5.157891260335395467e-01
5.199651911249771885e-01
5.235901514202645490e-01
5.266418210073180450e-01
5.290613528767920126e-01
5.308421954534451315e-01
5.320015834918683240e-01
5.325563963887398611e-01
5.325231581828226979e-01
5.319180375549690254e-01
5.307568478281213809e-01
5.290550469673014344e-01
5.268277375796180939e-01
5.240896669142744990e-01
5.208552268625530335e-01
5.171384539578249839e-01
5.129530293755446557e-01
5.083122796303424229e-01
5.032292366121075000e-01
4.977166838547337768e-01
4.917870604260898837e-01
4.854524500361430128e-01
4.787245810369348820e-01
4.716148264225982212e-01
4.641342038293474470e-01
4.562933755354973142e-01
4.481026484614346606e-01
4.395719741696408334e-01
4.307109488646759798e-01
4.215288133932011960e-01
4.120344532439509933e-01
4.022363985477508952e-01
3.921448252232665466e-01
3.817818482842171846e-01
3.711738933463298862e-01
3.603470396088160332e-01
3.493270109129764101e-01
3.381391757421959854e-01
3.268085472219586229e-01
3.153597831198219348e-01
3.038171858454342678e-01
2.922047024505271540e-01
2.805459246289302433e-01
2.688640887165482107e-01
2.571820756913778538e-01
2.455224111734937154e-01
2.339072654250732575e-01
2.223584533503678851e-01
2.108974344957194602e-01
1.995453130495524197e-01
1.883228378423890126e-01
1.772504023468270684e-01
1.663445879172744668e-01
1.556074836870657563e-01
1.450406029352247494e-01
1.346457137278349037e-01
1.244246400774502992e-01
1.143792619430884783e-01
1.045115152302412975e-01
9.482339179085985670e-02
8.531693942336465719e-02
7.599426187264410326e-02
6.685751883004936724e-02
5.790892593340216110e-02
4.915075476698987922e-02
4.058533286156462694e-02
3.221504369435057580e-02
2.404232668903306946e-02
1.606967721576656183e-02
8.299646591170287135e-03
7.348420783376968801e-04
-6.622073113184828719e-03
-1.376837982737325050e-02
-2.070130296174053919e-02
-2.741801146733086059e-02
-3.391561834872382220e-02
-4.019118066403185030e-02
-4.624169952490092550e-02
-5.206412009650585038e-02
-5.765533159756494608e-02
-6.301216730032102586e-02
-6.813140453055281653e-02
-7.300986011681617760e-02
-7.764894660047090558e-02
-8.205667219562964854e-02
-8.624150071823202812e-02
-9.021184003775090110e-02
-9.397604207719040259e-02
-9.754240281309484173e-02
-1.009191622755345324e-01
-1.041145045481158826e-01
-1.071365577679779940e-01
-1.099933941257942305e-01
-1.126930298657704693e-01
-1.152434252856453512e-01
-1.176524847366924309e-01
-1.199280566237157786e-01
-1.220779334050576259e-01
-1.241098515925884438e-01
-1.260314917517149080e-01
-1.278502062711767417e-01
-1.295670466606851645e-01
-1.311844860266093149e-01
-1.327069655945448678e-01
-1.341388869782549897e-01
-1.354846121796770275e-01
-1.367484635889139044e-01
-1.379347239842415307e-01
-1.390476365321036967e-01
-1.400914047871160695e-01
-1.410701926920625293e-01
-1.419881245778988055e-01
-1.428492851637487016e-01
-1.436577195569073984e-01
-1.444174332528395943e-01
-1.451323921351805324e-01
-1.458065224757343348e-01
-1.464437109344751409e-01
-1.470478045595488836e-01
-1.476226095177993192e-01
-1.481717597315233559e-01
-1.486986024927138272e-01
-1.492064185227832129e-01
-1.496984489313112066e-01
-1.501778952160499614e-01
-1.506479192629194275e-01
-1.511116433460118758e-01
-1.515721501275870686e-01
-1.520324826580772837e-01
-1.524956443760821234e-01
-1.529645991083741774e-01
-1.534422710698928050e-01
-1.539315448637502692e-01
-1.544348532985306277e-01
-1.549521352255333884e-01
-1.554823851451005434e-01
-1.560245565220270136e-01
-1.565775632092757386e-01
-1.571402794479798970e-01
-1.577115398674446001e-01
-1.582901394851417565e-01
-1.588748337067165395e-01
-1.594643383259813363e-01
-1.600573295249210493e-01
-1.606524438736877947e-01
-1.612482783306066203e-01
-1.618433902421698711e-01
-1.624362973430423240e-01
-1.630254777560564139e-01
-1.636093699922166744e-01
-1.641863729506954361e-01
-1.647548459188377667e-01
-1.653142259201055841e-01
-1.658641309010033260e-01
-1.664017142612808642e-01
-1.669235930685658564e-01
-1.674258737561715171e-01
-1.679041521231015022e-01
-1.683535133340453016e-01
-1.687685319193830413e-01
-1.691432717751809034e-01
-1.694712861631929579e-01
-1.697456177108636333e-01
-1.699587984113228312e-01
-1.701028496233910892e-01
-1.701692820715745014e-01
-1.701490958460689928e-01
-1.700327804027574607e-01
-1.698103145632127164e-01
-1.694711665146927115e-01
-1.690042938101463943e-01
-1.683981433682088524e-01
-1.676406514732051434e-01
-1.667192437751456868e-01
-1.656208352897318159e-01
-1.643318303983505868e-01
-1.628381228480798582e-01
-1.611250957516821847e-01
-1.591776215876104517e-01
-1.569800622000058488e-01
-1.545162687986973704e-01
-1.517695819592003725e-01
-1.487228316227199587e-01
-1.453583597423840357e-01
-1.416590316765616031e-01
-1.376086417515152704e-01
-1.331905802122397564e-01
-1.283877266694262165e-01
-1.231824500994456867e-01
-1.175566088443616708e-01
-1.114613609715864873e-01
-1.047714431469090324e-01
-9.752572152796207261e-02
-8.978177190665231899e-02
-8.159634432072483678e-02
-7.302536305378362624e-02
-6.412392663526458869e-02
-5.494630784045548971e-02
-4.554595369048204667e-02
-3.597548545233120176e-02
-2.628669863882026475e-02
-1.653056300861684841e-02
-6.757222566229251215e-03
2.984004437974301094e-03
1.264462550779552052e-02
2.217697390118399808e-02
3.153420863024984644e-02
4.067031446124552696e-02
4.954010191458808193e-02
5.809920726484923970e-02
6.630409254075488035e-02
7.411204552517727806e-02
8.148117975515231648e-02
8.837043452186889303e-02
9.473957487067100058e-02
1.005491916010515102e-01
1.057607012666637036e-01
1.103363461753145841e-01
1.142391943889666805e-01
1.174331397237325936e-01
1.198829017498836275e-01
1.215540247788819139e-01
1.224127498706520933e-01
1.224258897519517331e-01
1.215610532106186914e-01
1.197866747886458111e-01
1.170720147821781992e-01
1.133871592415198332e-01
1.087058410477519527e-01
1.030846758578000955e-01
9.661918659216257865e-02
8.939138926276299357e-02
8.148029931879116616e-02
7.296193164671119225e-02
6.390980946778537786e-02
5.439739276979528582e-02
4.449619255467333889e-02
3.427472059704225749e-02
2.379848810879453547e-02
1.313000573910765023e-02
2.328783574419984737e-03
-8.548668861553615494e-03
-1.944884260782889229e-02
-3.032122926613585456e-02
-4.111832100094543752e-02
-5.179561053945024029e-02
-6.231159117157406002e-02
-7.262775674995600173e-02
-8.270860168997375139e-02
-9.252162096972871286e-02
-1.020373101300525442e-01
-1.112291652744928083e-01
-1.200736830693346358e-01
-1.285503607435888596e-01
-1.366416960889938470e-01
-1.443331874600065623e-01
-1.516133337738208020e-01
-1.584736345103534005e-01
-1.646636880207232312e-01
-1.696579960312366020e-01
-1.737116349661970427e-01
-1.771010279625384598e-01
-1.800801952002596962e-01
-1.828807539024239759e-01
-1.857119183351630953e-01
-1.887604998076740925e-01
-1.921909066722215509e-01
-1.961451443241325476e-01
-2.007428152018036205e-01
-2.060811187866958272e-01
-2.122348516033407129e-01
-2.192564072193269875e-01
-2.271757762453168183e-01
-2.360005463350363097e-01
-2.457159021852821923e-01
-2.562846255359047531e-01
-2.676470951698325940e-01
-2.797212869130562551e-01
-2.924027736346379025e-01
-3.055647252466904829e-01
-3.190579087044081996e-01
-3.327106880060461402e-01
-3.463290241929317115e-01
-3.596964753494406586e-01
-3.725742345250157017e-01
-3.847027171836442938e-01
-3.958021391084299290e-01
-4.055789372421585992e-01
-4.136327986747081464e-01
-4.180248185980538489e-01
-4.166417856753806825e-01
-4.077189620761102473e-01
-3.898400834759210287e-01
-3.619373590567242505e-01
-3.232914715066774192e-01
-2.735315770201560137e-01
-2.126353052978467439e-01
-1.409287595466168774e-01
-5.908651647959531350e-02
3.186837368388689695e-02
1.305643872181340703e-01
2.352815268913256985e-01
3.439513219653601017e-01
4.541568281959401654e-01
5.631326278323812717e-01
6.677628769731545066e-01
7.640419157695786945e-01
8.471627323620721794e-01
9.131186642586329727e-01
9.588633254646272697e-01
9.823106064826361283e-01
9.823346743124908853e-01
9.587699724512837030e-01
9.124112208933650159e-01
8.450134161303388680e-01
7.592918311510182816e-01
6.589220154415927899e-01
5.485397949853960675e-01
4.329019199870717260e-01
3.154440510412997445e-01
1.996117972196277124e-01
8.838290079774338559e-02
-1.574274582021627233e-02
-1.107431000468264704e-01
-1.950739604709529340e-01
-2.676689574338201316e-01
-3.279395688834915168e-01
-3.757751226396541799e-01
-4.115427963935366917e-01
-4.360843212442888639e-01
-4.495540722226095687e-01
-4.528106126438627976e-01
-4.476618955095939545e-01
-4.357773377651956159e-01
-4.186878202998985943e-01
-3.977855971662292989e-01
-3.743238783796579705e-01
-3.494171613029585788e-01
-3.240414070654500933e-01
-2.990340407402821699e-01
-2.750939513444763396e-01
-2.527814918388656684e-01
-2.325184791281340591e-01
-2.145881940608008742e-01
-1.991353814292476376e-01
-1.861549806337652324e-01
-1.752922513081729416e-01
-1.662070444947542081e-01
-1.586407701091515909e-01
-1.523531220110339590e-01
-1.471220780041057608e-01
-1.427438998361057199e-01
-1.390331331988088615e-01
-1.358226077280211830e-01
-1.329634370035828461e-01
-1.303250185493685098e-01
-1.277950338332878299e-01
-1.252794482672823229e-01
-1.227025112073280855e-01
-1.200067559534352540e-01
-1.171529997496487813e-01
-1.141203437840464796e-01
-1.109061731887396457e-01
-1.075261570398731437e-01
-1.040142483576292076e-01
-1.004226841062198505e-01
-9.681653800621137229e-02
-9.312970479458879125e-02
-8.930935231481446079e-02
-8.534679293700958569e-02
-8.123402519475211858e-02
-7.696373378507190277e-02
-7.252928956845938746e-02
-6.792474956885341530e-02
-6.314485697365003480e-02
-5.818504113369679653e-02
-5.304141756330283536e-02
-4.771078794022480529e-02
-4.219064010567685069e-02
-3.647914806432412532e-02
-3.057517198429453992e-02
-2.447825819716251822e-02
-1.818863919795990491e-02
-1.170723364516988718e-02
-5.035646360739394478e-03
1.823844774853870115e-03
8.868803898793430063e-03
1.609680614595280709e-02
2.350478820704605606e-02
3.108900060934182905e-02
3.884500771665172492e-02
4.676768772933617702e-02
5.487639171979252772e-02
6.321580849208791042e-02
7.175880633054303182e-02
8.047544246800766854e-02
8.933630045725557411e-02
9.831249017100696097e-02
1.073756478019143451e-01
1.164979358625691380e-01
1.256520431854843967e-01
1.348111849231219683e-01
1.439491025478752406e-01
1.530400638520759415e-01
1.620588629479793319e-01
1.709808202677874645e-01
1.797817825636347511e-01
1.884381229075936526e-01
1.969267406916611618e-01
2.052250616277788708e-01
2.133110377478223962e-01
2.211631474036055978e-01
2.287603952668652019e-01
2.360823123292858650e-01
2.431089559024826874e-01
2.498209096180069588e-01
2.561992834273472130e-01
2.622257136019197077e-01
2.678823627330814139e-01
2.731519197321255477e-01
2.780175998302812923e-01
2.824631445787054163e-01
2.864728218484979827e-01
2.900314258306914694e-01
2.931242770362555428e-01
2.957372224531669147e-01
2.978566670212225986e-01
2.994696117728540274e-01
3.005635933780399505e-01
3.011266748266923088e-01
3.011474454286611202e-01
3.006150208137302604e-01
2.995190429316194058e-01
2.978496800519821464e-01
2.955976267644105926e-01
2.927541039784266053e-01
2.893110168340201627e-01
2.852587108478372713e-01
2.805509404714461308e-01
2.752017026827056068e-01
2.692471553236578385e-01
2.627228032138760883e-01
2.556634981504553039e-01
2.481034389080199742e-01
2.400761712387133595e-01
2.316145878722183360e-01
2.227509285157343588e-01
2.135167798539864270e-01
2.039430755492396274e-01
1.940600962412614705e-01
1.838974695473662990e-01
1.734841700623976080e-01
1.628485193586979296e-01
1.520181859861712559e-01
1.410201854722147596e-01
1.298808803217760266e-01
1.186259800173301571e-01
1.072805410188524960e-01
9.586896676387041127e-02
8.441500766743810502e-02
7.294176112211128715e-02
6.147167149800303321e-02
5.002653014272159804e-02
3.862747538142699555e-02
2.729499251680518601e-02
1.604891382904240216e-02
4.908418575877787626e-03
-6.107967007423636963e-03
-1.698236970809594015e-02
-2.769756933581174474e-02
-3.823699872275368450e-02
-4.858474372355059412e-02
-5.872554321530562560e-02
-6.864478909761970171e-02
-7.832852629254316579e-02
-8.776345274460095602e-02
-9.693691942081389401e-02
-1.058369303106459214e-01
-1.144521424260655507e-01
-1.227718658014909092e-01
-1.307860634938165789e-01
-1.384853515824286674e-01
-1.458609991691683094e-01
-1.529049283783500135e-01
-1.596097143567805632e-01
-1.659685852737166623e-01
-1.719754557169453357e-01
-1.776259766900098458e-01
-1.829156154118026789e-01
-1.878512652088860924e-01
-1.924436316618733933e-01
-1.967032482249350123e-01
-2.006404762258110486e-01
-2.042655048657826267e-01
-2.075883512197032599e-01
-2.106188602359725381e-01
-2.133667047365475633e-01
-2.158413854169518031e-01
-2.180522308462566894e-01
-2.200083974670919706e-01
-2.217188695956508193e-01
-2.231924594216752045e-01
-2.244378070084719901e-01
-2.254633802929004727e-01
-2.262774750853742134e-01
-2.268882150698723621e-01
-2.273035518039242253e-01
-2.275312647186178983e-01
-2.275789611186011530e-01
-2.274540761820753598e-01
-2.271638729608017881e-01
-2.267154423800974428e-01
-2.261157032388366739e-01
-2.253714022094502889e-01
-2.244891138379267459e-01
-2.234752405438120704e-01
-2.223360126202094667e-01
-2.210774882337785963e-01
-2.197055534247366604e-01
-2.182259221068581778e-01
-2.166441360674739580e-01
-2.149655649674740154e-01
-2.131954063413014633e-01
-2.113386855969597022e-01
-2.094002560160094784e-01
-2.073847987535669124e-01
-2.052968228383069138e-01
-2.031406647928306053e-01
-2.009203889265490928e-01
-1.986396536202318652e-01
-1.963019117999747210e-01
-1.939104442654347171e-01
-1.914683596898248685e-01
-1.889785946199151190e-01
-1.864439134760326189e-01
-1.838669085520613367e-01
-1.812500000154435020e-01
-1.785957921761846534e-01
-1.759085915491053198e-01
-1.731931467303458871e-01
-1.704540345458795680e-01
-1.676956596952343670e-01
-1.649222547514958004e-01
-1.621378801613061749e-01
-1.593464242448650869e-01
-1.565516031959292842e-01
-1.537569610818125820e-01
-1.509658698433878066e-01
-1.481815292950788565e-01
-1.454069671248737206e-01
-1.426425719227044087e-01
-1.398829725311283301e-01
-1.371341216301011912e-01
-1.344029454755010233e-01
-1.316961461699366065e-01
-1.290202016627467196e-01
-1.263813657500020282e-01
-1.237856680744994498e-01
-1.212389141257690234e-01
-1.187466852400722861e-01
-1.163143386003991642e-01
-1.139470072364703046e-01
-1.116496000247370057e-01
-1.094268016883803707e-01
-1.072830727973135001e-01
-1.052226497681764406e-01
-1.032495448643415970e-01
-1.013675461959120394e-01
-9.958021771972155878e-02
-9.789089923933214088e-02
-9.630270640503857393e-02
-9.481853071386356357e-02
-9.344103950956211824e-02
-9.217267598261949524e-02
-9.101565917024864727e-02
-8.997198395639523227e-02
-8.904342107173578158e-02
-8.823151709367481332e-02
-8.753759444634953701e-02
-8.696275140062516285e-02
-8.650786207409935646e-02
-8.617357643109890830e-02
-8.596032028268071890e-02
-8.586829528663263156e-02
-8.589747894747321033e-02
-8.604762461644982485e-02
-8.631826149154191163e-02
-8.670856792649339617e-02
-8.721296084962915085e-02
-8.781995400108433270e-02
-8.851747831176180747e-02
-8.929324055929926951e-02
-9.013472336806203911e-02
-9.102918520914493605e-02
-9.196366040037567968e-02
-9.292495910630919898e-02
-9.389966733823318368e-02
-9.487414695416572508e-02
-9.583453565885255432e-02
-9.676674700377060900e-02
-9.765647038713293204e-02
-9.851798740819106559e-02
-9.934639467121969547e-02
-1.000938505715267129e-01
-1.007153906765927143e-01
-1.011689641665219630e-01
-1.014154338340382544e-01
-1.014185760844937417e-01
-1.011450809358645925e-01
-1.005645520187484626e-01
-9.964950657637229592e-02
-9.837537546457743309e-02
-9.672050315183723657e-02
-9.466614771925230265e-02
-9.219648086053280900e-02
-8.929858788202699182e-02
-8.596246770270457582e-02
-8.218103285415212511e-02
-7.795010948059309663e-02
-7.326843733885625432e-02
-6.813766979841025251e-02
-6.256237384135053536e-02
-5.655003006237455110e-02
-5.011103266882566132e-02
-4.325868948067064512e-02
-3.600922193047738362e-02
-2.838176506347217520e-02
-2.039836753747027720e-02
-1.208399162293458118e-02
-3.466514026091466194e-03
5.422980494258294870e-03
1.454976477606587104e-02
2.387609395161342796e-02
3.338144079386551333e-02
4.300750127757427266e-02
5.266466977479083988e-02
6.226921466331537813e-02
7.174327832672675043e-02
8.101333802858748379e-02
9.000389242493692099e-02
9.864281628001322910e-02
1.068638573181232843e-01
1.146066372693198554e-01
1.218166518694589195e-01
1.284452708601515059e-01
1.344497379887903965e-01
1.397931710085520141e-01
1.444445616783799902e-01
1.483787757629926596e-01
1.515765530328934130e-01
1.540245072643517954e-01
1.557151262394186608e-01
1.566467717459179565e-01
1.568236795774543557e-01
1.562559595333981588e-01
1.549595954189057490e-01
1.529564450449088508e-01
1.502654458806604865e-01
1.469010677520030950e-01
1.429375585565993423e-01
1.384518914707968118e-01
1.335178967102118031e-01
1.282062615297071551e-01
1.225845302234317979e-01
1.167171041248083185e-01
1.106652416064972250e-01
1.044870580804648647e-01
9.823752599790656903e-02
9.196847484931436334e-02
8.572859116444751792e-02
7.956341851230763762e-02
7.351535750119493617e-02
6.762366577864842299e-02
6.192445803149493333e-02
5.645070598583350197e-02
5.123223840700213277e-02
4.629574109963560669e-02
4.166475690762856676e-02
3.735968571413143813e-02
3.339778444158245790e-02
2.979316705166199647e-02
2.655534728963568347e-02
2.362168532142868566e-02
2.097636327446952831e-02
1.864019139674401998e-02
1.662285867394951155e-02
1.492293282947310118e-02
1.352786032443407255e-02
1.241406012897448147e-02
1.155000283264882854e-02
1.089690521525711608e-02
1.040509718847425213e-02
1.001378740168713116e-02
9.651063241994502218e-03
9.233890834192223784e-03
8.668115040798590742e-03
7.848459462025676736e-03
6.658526435805237065e-03
4.970797037773824756e-03
2.646631081271319519e-03
-4.637328826485598299e-04
-4.521177565221357053e-03
-9.697706939986242003e-03
-1.617644624275665910e-02
-2.415164197165955984e-02
-3.382866188709748867e-02
-4.556351072115419343e-02
-6.131969545033578994e-02
-8.011742821954125071e-02
-1.000720204987146922e-01
-1.194562066370426917e-01
-1.367001438628334120e-01
-1.503914122836462752e-01
-1.592750148861843407e-01
-1.622533775363525499e-01
-1.583863489792557977e-01
-1.468912008391722313e-01
-1.271426276195992688e-01
-9.867274670316553142e-02
-6.117109835177646227e-02
-1.448464570640684013e-02
4.138222521268061782e-02
1.062677055060037012e-01
1.798525633950680269e-01
2.616601442220192753e-01
3.510563704497865478e-01
4.472497416623509303e-01
5.492913345641757816e-01
6.560748029808861626e-01
7.660646737544400953e-01
8.743309487928679902e-01
9.747421829390147119e-01
1.062166774053189489e+00
1.132447930265583214e+00
1.182402836947560765e+00
1.209822495624224281e+00
1.213471723974760108e+00
1.193089155832217196e+00
1.149387241183678299e+00
1.084052056878010095e+00
9.997425592596302923e-01
9.000912316352324138e-01
7.896874689548137871e-01
6.729895549824780332e-01
5.538561111652553492e-01
4.358595159876594849e-01
3.220923165479595562e-01
2.151672285578836996e-01
1.172171363432246011e-01
2.989509284350344576e-02
-4.562568038822638339e-02
-1.086517931848653695e-01
-1.589696867657978963e-01
-1.968456337364764552e-01
-2.230257380886385143e-01
-2.387226707767619027e-01
-2.443000514758303932e-01
-2.408529998588297416e-01
-2.302628785582038207e-01
-2.142427027591232436e-01
-1.943371401994155589e-01
-1.719225111696531805e-01
-1.482067885131217455e-01
-1.242295976257429962e-01
-1.008622164562075207e-01
-7.880757550590572480e-02
-5.860025782887251511e-02
-4.060649903192054683e-02
-2.502418727449817748e-02
-1.188286326880593630e-02
-1.043720279737814227e-03
7.800395875135771040e-03
1.509471078509289077e-02
2.113509982027926559e-02
2.610735206300875827e-02
3.018534448952208543e-02
3.353122831498352857e-02
3.629542899344810614e-02
3.861664621787978119e-02
4.062185392015060098e-02
4.242630027103314050e-02
4.413350768020220249e-02
4.583527279624553114e-02
4.761166650664556965e-02
4.953103393779755004e-02
5.164999445499498382e-02
5.401344166243739198e-02
5.665454340323216459e-02
5.959474175938794804e-02
6.284367703038223896e-02
6.639683007818351912e-02
7.023506705057909472e-02
7.432736041723006504e-02
7.863095688669655137e-02
8.309137740644054193e-02
8.768064854348880943e-02
9.248920454242687272e-02
9.753105022099868571e-02
1.028106355301859065e-01
1.083314855940913091e-01
1.140962007099584480e-01
1.201064563481527153e-01
1.263630031521674191e-01
1.328656669386427125e-01
1.396133486973282767e-01
1.466040245911263695e-01
1.538347459560527875e-01
1.613016393012539074e-01
1.689999063090258380e-01
1.769238238347763947e-01
1.850667439070428633e-01
1.934210937275139819e-01
2.019783756709815081e-01
2.107291672853958686e-01
2.196631212918181142e-01
2.287689655844380443e-01
2.380345032305986042e-01
2.474466124707527248e-01
2.569912467184823357e-01
2.666534345605230949e-01
2.764258936614933937e-01
2.863245973945607314e-01
2.963203706525985859e-01
3.063789025194311177e-01
3.164663893198545463e-01
3.265495346195815274e-01
3.365955492252712400e-01
3.465721511845515357e-01
3.564475657859606517e-01
3.661905255590156560e-01
3.757702702741521628e-01
3.851565469427498667e-01
3.943196098171589670e-01
4.032302198980761698e-01
4.118592679911117216e-01
4.201771016405767001e-01
4.281543943216509218e-01
4.357623267504906472e-01
4.429725868841727920e-01
4.497573699207194631e-01
4.560911829078997393e-01
4.619577012388852433e-01
4.673437027897814344e-01
4.722364731622562539e-01
4.766238051989033497e-01
4.804939989832812119e-01
4.838358618398770350e-01
4.866387083341224273e-01
4.888923602724075113e-01
4.905871467020527232e-01
4.917139039113249677e-01
4.922639754294464987e-01
4.922292120265659987e-01
4.916019717137924405e-01
4.903751197431714948e-01
4.885420286076925245e-01
4.860965780412941917e-01
4.830229231680379098e-01
4.792339952207388398e-01
4.747440870129355228e-01
4.695938053907634524e-01
4.638231970086546530e-01
4.574717483293362918e-01
4.505783856238331220e-01
4.431814749714511614e-01
4.353188222598021184e-01
4.270276731847919005e-01
4.183447132506072363e-01
4.093060677697487604e-01
3.999473018629848275e-01
3.903034204593991974e-01
3.804088682963701062e-01
3.702975299195478409e-01
3.600027296828983148e-01
3.495572317486802527e-01
3.389932400874258178e-01
3.283423984779890170e-01
3.176357905074908006e-01
3.069039395713614171e-01
2.961768088733334747e-01
2.854838014254051926e-01
2.748537600478930809e-01
2.643149673694096258e-01
2.538951458268332018e-01
2.436214576653726593e-01
2.335205049384944109e-01
2.236183295079847699e-01
2.139404130439238605e-01
2.045116770246613591e-01
1.953564827368645673e-01
1.864983871884023370e-01
1.779529844915175851e-01
1.697267502630554481e-01
1.618251231955143699e-01
1.542529817897126398e-01
1.470146443547620807e-01
1.401138690080450944e-01
1.335538536752596261e-01
1.273372360903991252e-01
1.214660937957271203e-01
1.159419441418314684e-01
1.107657442875638887e-01
1.059378912000928374e-01
1.014582216548768345e-01
9.732601223565397197e-02
9.353997933447172342e-02
9.009827915167116508e-02
8.699850769587036403e-02
8.423770078400388828e-02
8.181233404127835618e-02
7.971832290120997588e-02
7.795098313424560221e-02
7.649874493179513457e-02
7.534192241641578247e-02
7.446146197451256055e-02
7.383849445654989962e-02
7.345433517707622428e-02
7.329048391469634993e-02
7.332862491209518607e-02
7.355062687602662019e-02
7.393854297730403924e-02
7.447461085082612842e-02
7.514125259555391734e-02
7.592107477451362496e-02
7.679686841481064841e-02
7.775160900761152183e-02
7.876845650815926525e-02
7.983075533576625138e-02
8.092203437380937614e-02
8.202600696974057803e-02
8.312657093508132866e-02
8.420780854542171678e-02
8.525398654042216917e-02
8.624955612381182690e-02
8.717915296339096010e-02
8.802759754400708847e-02
8.878033805085930319e-02
8.942431631016359295e-02
8.994689915551359882e-02
9.033563788457198152e-02
9.057826825907039359e-02
9.066473283146259110e-02
9.059457340705653894e-02
9.037025388475844467e-02
8.999442293189457986e-02
8.946991367986412147e-02
8.879974372413308725e-02
8.798711512424131631e-02
8.703541440379405913e-02
8.594821255046997122e-02
8.472926501601707461e-02
8.338251171625080116e-02
8.191207703106033466e-02
8.032226980440075603e-02
7.861758334430121731e-02
7.680269542285728113e-02
7.488246827623626367e-02
7.286194860467419543e-02
7.074636757247936003e-02
6.854114080802621578e-02
6.625186840376380559e-02
6.388433491620601479e-02
6.144450936594189616e-02
5.893854523762639963e-02
5.637278047998553476e-02
5.375373750581493443e-02
5.108812319198247076e-02
4.838282887942174648e-02
4.564493037314128893e-02
4.288168794221430824e-02
4.010054631978816897e-02
3.730920189110029095e-02
3.451414445284061577e-02
3.172092690221318956e-02
2.893520048571054937e-02
2.616272061628739654e-02
2.340934687335312694e-02
2.068104300277873869e-02
1.798387691689035811e-02
1.532402069447590803e-02
1.270775058077725297e-02
1.014144698750105329e-02
7.631594492803940241e-03
5.184781841308252516e-03
2.807701944090458708e-03
5.071518786881421686e-04
-1.709967110905707098e-03
-3.836649614235970382e-03
-5.865786054394325419e-03
-7.790162688007468486e-03
-9.602461605251126631e-03
-1.129541466963155869e-02
-1.286607811822303507e-02
-1.431639043947912499e-02
-1.564845196335978503e-02
-1.686425885337050623e-02
-1.796570310655438638e-02
-1.895457255349928399e-02
-1.983255085833163234e-02
-2.060121751872326379e-02
-2.126204786588304502e-02
-2.181641306456655327e-02
-2.226558011306584844e-02
-2.261071184321940958e-02
-2.285286692040380818e-02
-2.299299984353955772e-02
-2.303196094508656172e-02
-2.297049639105032404e-02
-2.280924818097179035e-02
-2.254875414794021982e-02
-2.218944795858082686e-02
-2.173165911306502995e-02
-2.117561294510296455e-02
-2.052888983816375523e-02
-1.980150343667175239e-02
-1.897944873959243189e-02
-1.804811140273331754e-02
-1.699318038214870513e-02
-1.580064793413248764e-02
-1.445680961522099323e-02
-1.294826428219454650e-02
-1.126191409207053656e-02
-9.384964502112909390e-03
-7.304924269826748584e-03
-5.009605452956311655e-03
-2.487123409491250742e-03
2.741032023410271135e-04
3.285352424067411459e-03
6.557598996971142347e-03
1.010151436210172948e-02
1.392746666025915930e-02
1.804552073200053203e-02
2.246543811765056020e-02
2.719667705727871893e-02
3.224839249072791042e-02
3.762943605758656274e-02
4.334835609720134875e-02
4.941339740939528630e-02
5.583194580341539759e-02
6.260934111147095638e-02
6.975027915137610446e-02
7.725915244068229382e-02
8.514115880755956933e-02
9.340693293299946742e-02
1.021219547520945542e-01
1.112734329321204002e-01
1.207920554914015676e-01
1.306100335499226772e-01
1.406611013293494750e-01
1.508805161529759020e-01
1.612050584457868085e-01
1.715730317344009992e-01
1.819242626470945201e-01
1.922001009138315508e-01
2.023434193662051461e-01
2.122986139374712644e-01
2.220116036625663369e-01
2.314298306780562253e-01
2.405022602221935646e-01
2.491793806348716334e-01
2.574132033576371770e-01
2.651572629337196618e-01
2.723666170079827031e-01
2.789978463269693343e-01
2.850090547388680062e-01
2.903598691935228016e-01
2.950114397424553059e-01
2.989264395388266382e-01
3.020690648374657616e-01
3.044050349948595469e-01
3.059015924691534938e-01
3.065275028201503993e-01
3.062530547093151312e-01
3.050500598997687440e-01
3.028822779815484867e-01
2.997041824608345228e-01
2.955997671361132451e-01
2.906684599323596241e-01
2.850060671556057801e-01
2.787047734928845277e-01
2.718531420122812237e-01
2.645361141629060109e-01
2.568350097748824390e-01
2.488275270593808819e-01
2.405877426086021065e-01
2.321861113957560951e-01
2.236894667751078147e-01
2.151610204819254246e-01
2.066603626325254073e-01
1.982434617242594954e-01
1.899626646354773685e-01
1.818666966255890471e-01
1.740005668731767485e-01
1.664030821803805793e-01
1.591065975432318647e-01
1.521397018578204974e-01
1.455273624012855538e-01
1.392909248317989457e-01
1.334481131885349448e-01
1.280130298917248333e-01
1.229961557426219321e-01
1.184043499234960217e-01
1.142408499976649700e-01
1.105052719094583580e-01
1.071936099842467072e-01
1.042982369284336103e-01
1.018079038294345401e-01
9.970774015570826876e-02
9.797925375674512716e-02
9.660033086304935235e-02
9.554750436288764193e-02
9.517897685690668297e-02
9.549697546687190008e-02
9.613796170116628570e-02
9.677624130546925996e-02
9.712396426275543559e-02
9.693112479330023845e-02
9.598556135466410066e-02
9.411295664171689945e-02
9.117683758660721782e-02
8.707857535879261202e-02
8.175738536502841214e-02
7.519032724934691936e-02
6.739230489309233629e-02
5.841606641491189911e-02
4.835220417071571519e-02
3.732915475375254977e-02
2.551319899452042517e-02
1.310846196084851367e-02
3.569129578637336708e-04
-1.246163447205200780e-02
-2.512366418139723445e-02
-3.875566877504087182e-02
-5.151624308571987887e-02
-6.072293227143021888e-02
-6.407264280874576390e-02
-5.964164249274725438e-02
-4.588556043708112708e-02
-2.163938707389287397e-02
1.388252596232730784e-02
6.108707051288070344e-02
1.200037917804688548e-01
1.902832926402775460e-01
2.711971736178658832e-01
3.616392465223541852e-01
4.601243923700877314e-01
5.647881308700947178e-01
6.733866204126045529e-01
7.832966580692970471e-01
8.915156795936052259e-01
9.946617594200433121e-01
1.088973610664959457e+00
1.170227854141206336e+00
1.233650658449798376e+00
1.276182702777603595e+00
1.295923957833323037e+00
1.291912428354516029e+00
1.264124153107512472e+00
1.213473204887470125e+00
1.141811690518202749e+00
1.051929750852425460e+00
9.475555607717042195e-01
8.333553291861023338e-01
7.145947766182678684e-01
5.945045132022634959e-01
4.762073136082404790e-01
3.625816207250505685e-01
2.560389949707468360e-01
1.585241142932771463e-01
