4.251216400661629868e-01
3.020443967154278209e-01
1.118780866882031905e-01
4.769122958690562575e-01
-1.110545820234669634e-01
5.252803988129602919e-01
3.571295522452180293e-01
-2.216154920013035934e-01
-6.368200237485942272e-02
-2.648861849805549395e-01
6.341540557333823214e-02
-7.692024743642880691e-02
3.339303533078128439e-01
7.155572829085754538e-01
-1.668167598892473791e-01
1.985647439318736218e-01
-1.382928231676860964e-02
-2.162176875907634854e-01
-1.063526378976167863e-02
1.216582286659444456e-01
-1.987949272703816439e-02
9.710224622525365223e-02
3.126680599961443319e-01
-3.043322270891384018e-02
7.595414697435058649e-02
-4.169424542658299870e-01
-4.156324644574150851e-01
1.979381994566613012e-01
-3.826902050101864128e-01
7.472550198714759118e-01
-4.578505521694907487e-02
3.419842560602319170e-01
-7.497749916003763893e-02
9.797337961241772697e-02
1.405231491727588766e-01
2.303565847563861790e-01
2.278439246047976596e-01
1.588542898139259640e-01
8.331936337616735466e-02
-4.861340444965400742e-02
-2.302831067734927573e-01
4.244124817935656102e-01
1.494978943235892033e-01
-2.513653975610624092e-01
8.454528813111039653e-02
8.913765050999124251e-02
-8.279932339385276396e-02
3.707340308668417572e-01
3.461591881950626948e-01
2.619465893262697964e-01
6.078893678818065860e-01
-4.761226881241624742e-01
1.329208377383676587e-01
4.729894733487043090e-02
5.415106713087816104e-01
8.076374832683455574e-02
-2.593941222302265648e-01
-2.174414481653363096e-01
-9.408603106353594092e-04
-3.309822086358312765e-01
3.785632603614909053e-01
-1.718406108178149594e-01
2.489559811667217681e-01
3.541294365366239871e-01
5.440886889798703940e-01
-2.945168530156890840e-01
2.605897741203145324e-01
-3.795569260360679986e-01
-3.583027733906969381e-01
-1.867381603341985441e-01
1.431040713632603933e-01
-2.366850155530541289e-01
2.926855219235280359e-01
-3.818091743978579977e-01
3.535278508472690651e-01
4.021199642101114247e-02
-2.830989710644215007e-01
-3.695250750111888638e-01
4.942057512751914239e-02
-1.306231088371760385e-01
4.680183399473281103e-02
-4.940319712357658100e-01
2.865287424202753730e-01
-5.397763114767839543e-01
2.190985785072950276e-01
-5.526986806261147134e-02
4.960478313164216058e-01
2.338581817519678474e-01
-2.631534562471088412e-02
2.377749542535242677e-01
-1.827986835668881371e-01
1.028674699279933935e-01
-1.960032353258128746e-01
7.890724080719935252e-02
7.878839929539059594e-02
1.215131718548835005e-01
1.255343934250391646e-01
-6.185334927491294155e-02
9.219466152566668793e-02
3.518079894128571805e-01
7.446302165458815181e-02
1.254020435540658118e-01
2.298444584080587827e-01
-3.067366953755336079e-01
5.428997988384353102e-01
1.860882704374619556e-01
-2.057528044319284488e-01
2.883471168283435193e-01
2.853323418530229749e-01
3.148461534032166442e-01
1.415855375203131650e-01
2.963804862983246413e-01
4.177295636184074068e-01
-1.872855222256689378e-01
2.780011722151597975e-01
-3.489321272939945873e-01
-1.633327829432789091e-01
4.582241000579043849e-02
2.929620194536788902e-02
4.385416157531183412e-01
-4.194819895555439992e-01
-1.931375766482176515e-01
1.571801908102948009e-01
6.349838718822493899e-02
-3.677249864367206911e-01
1.545753424884725169e-01
2.481885969053726493e-01
2.458450564994594523e-01
1.540150349058617418e-01
2.966492886662764894e-01
5.091800961292621830e-01
-4.783870681503644973e-02
-8.965517827335725554e-02
7.498672728133802534e-02
-1.308252548681586858e-01
-2.916476773188536042e-01
-8.760527905269449578e-02
5.717136319856852555e-01
-4.715421450868201303e-03
-6.505941677783061428e-02
4.897645974161683458e-01
6.977307438236876602e-02
4.326749045917485659e-01
3.949479285612345070e-01
-2.510051003119789792e-01
5.526231503914787874e-02
5.470152553054594829e-02
8.055445618661780105e-02
-8.249182683410540007e-02
5.874766358013432388e-01
-4.670573074950764569e-01
5.407213470245841175e-02
4.030389285032824898e-01
-3.085088975295095515e-01
7.433065252985994464e-02
3.701713156408493743e-01
4.540688416871450084e-01
-1.711614149231127646e-04
5.727257078580080818e-02
2.436437963073351254e-01
-4.668974815713289317e-01
-3.289824217723044120e-01
8.180389744942118124e-03
-6.393434833710079368e-02
7.165231879968574080e-02
8.083630898760307826e-02
1.909521907582194533e-01
6.033320020651551374e-01
3.867202105689898084e-01
-4.946398985305104357e-01
2.375700802099981190e-01
-7.566434282872007699e-01
4.788202543877920214e-01
2.090858590651913096e-01
1.554186068429335710e-01
6.467014478616314732e-02
-3.524665963038604022e-01
-4.591513844203816419e-02
2.464973179916144508e-01
1.627149575407347282e-01
4.669578065323151672e-02
2.898866781682019056e-01
-2.728262709041501255e-01
-1.988291396260479793e-01
-7.608999028682358889e-02
1.576241958854163738e-01
-3.898692726150557730e-01
3.950096076822476321e-02
1.128757314122826594e-01
-5.759626651683032172e-02
-5.281784875957101777e-01
-3.191014537473334522e-01
4.057682415645302854e-01
3.304798378864609587e-01
1.273668814656622739e-01
3.480094391454252589e-01
5.086245262727562277e-01
-4.737440474458416428e-01
-9.709935395329943875e-02
-5.829600640846233084e-01
1.085637272329912917e-01
-6.013773451797771452e-01
-3.948961874873199718e-01
1.837828224521669274e-01
4.882512156514529633e-01
2.909382960940977425e-02
6.962362840973886080e-02
-4.415250199795633934e-01
-4.845798963423221251e-01
1.257236760860260538e-01
-2.901190548052919038e-02
2.354333835392046215e-01
1.691202269662722968e-01
-1.029357509666433412e-01
2.801585401237123296e-01
-5.473692452637568540e-02
-1.360422898043125994e-01
3.016435178790185523e-01
-4.743303319575677135e-02
-1.535658806533014009e-01
-4.059643795010892120e-03
3.253398042257036327e-01
2.753720737043086064e-01
-4.792956738754754475e-01
-3.373351805511468071e-02
-1.796138130268404298e-01
4.212899878928579728e-02
5.192060527154269689e-01
-3.326993910938905175e-01
6.436277010771653817e-01
-4.103906132932300665e-01
1.969480326798889180e-01
-1.162558649721947002e-01
2.223068842557371638e-01
1.755960435293491551e-01
-3.116594441370225121e-01
2.632668122606049987e-01
-4.947565100605639254e-01
1.849000514222939318e-01
9.263678986795649550e-02
3.934845039356408281e-01
-2.504851170635180591e-01
1.063976982585902231e+00
5.117104104973855261e-01
-4.545747603582773744e-01
-3.781409388970476959e-01
4.424654813615966353e-03
-1.620908274223792911e-01
-1.208314244310917940e-01
-6.725599069949970144e-01
-1.158641515401334643e-03
6.902304418210011283e-01
1.018542863409402921e-01
-2.387499824415598160e-01
-8.808554589779847566e-02
1.635545405365100846e-01
1.295522047231794094e-01
2.102341706993330894e-01
6.474370405651745930e-01
-3.081460020242802189e-01
2.323761271259707217e-01
5.615205846753631436e-01
-7.142383140157385069e-02
4.454436614757358859e-01
9.552821009808104558e-02
-1.750321064684236538e-01
-9.432067064184491978e-02
2.975972401500514772e-02
1.512378518130784166e-01
-2.023647928171927179e-01
-6.472370076927690119e-02
-4.575426532430306725e-01
7.598455178806727550e-02
2.826744255788992133e-01
-2.530745963357957651e-01
-1.323984099252238922e-01
-2.562811074037258385e-01
-1.863093650819139802e-01
-5.420499061662468199e-01
-9.459273181440491784e-03
-2.268566230737354694e-01
3.772410463088610166e-01
2.845080864898836409e-02
5.772068910332551761e-01
-6.910885038158501859e-01
-1.473401605437923978e-01
1.460672636082261666e-01
4.772081041007001367e-01
2.924945555228559702e-01
5.002896900814454151e-01
2.463518335706998963e-01
-5.780052868123091159e-01
-8.606971511333852409e-02
-2.725221409085734070e-01
6.257381362014400317e-01
1.629513133046391615e-01
-2.122972860270536111e-01
2.594832788609467700e-02
2.828213689623846339e-01
2.435727668388349421e-01
-2.974808595438201975e-01
-3.588751991967639166e-01
-1.128461450381194608e-01
7.673887738174509643e-01
3.654047315105925231e-02
2.234575421417944741e-01
-6.350938557196181278e-02
1.867134923112222511e-01
-3.533685418329813865e-01
2.667244532687361169e-01
3.392175358545164165e-01
4.755028702909761679e-02
-2.798714535662855107e-03
-3.537976262782609460e-01
5.371377865312311206e-01
2.717164909346735935e-01
-6.580694985122644836e-01
5.273892752398164907e-01
4.133905729456480160e-01
3.426414259050472033e-01
1.347165897450477989e-01
-3.481502681675773259e-01
3.254861320886301979e-01
1.905918329121021881e-01
-4.251857780089723371e-01
-1.799808874808668802e-01
3.869296105767410787e-01
4.070066436718881020e-01
2.341266946712702857e-01
-3.035899969252991992e-01
3.212805247943903431e-01
-1.836059486615770064e-01
2.078799028095932033e-01
1.122939282851949105e-01
-3.320179955326437726e-01
1.254340128133017429e-01
2.864807478299224441e-01
6.216785628610189962e-02
2.659482755273589460e-01
-2.553071567422833255e-01
1.899557822399871032e-01
4.595758015824538134e-01
7.686357214452078646e-01
8.301034395019259160e-02
-2.537682090673136492e-02
-1.910133817876226714e-01
-7.639805351904297437e-01
2.259480408452484990e-01
-8.316334969148872491e-02
3.779499316408586607e-01
5.555285889189262027e-01
-2.439332160247082437e-01
3.483631271110100569e-02
-2.480330865577076438e-01
4.441378255265483466e-01
-4.623404979077128107e-01
-7.604390439602750629e-01
2.489063854069599735e-01
3.820891082102792491e-01
2.993376317105779227e-01
1.621932573255585319e-01
8.247006881065818695e-03
-1.808112272080384664e-01
-3.559915459996532139e-02
2.793736941814740637e-01
-7.968970147904141932e-02
2.379902471461311786e-01
-2.670443148673089240e-02
-8.738117190977084947e-02
-2.758893668058529647e-01
-4.280395195382565299e-01
3.141235432464738880e-02
-1.402264246650676838e-01
3.175978239019447980e-01
7.912206610052802125e-02
-3.460045684527928711e-01
1.873498942272042722e-01
1.410517874776113234e-01
3.342837508277832770e-01
8.424563932873641026e-02
3.672825697566807490e-02
2.027066083869204227e-02
-2.679972715002791883e-01
-1.721966584313788240e-01
1.393501456360880519e-01
2.496711517358302101e-02
-3.734773576044314036e-01
5.533265698153086998e-01
4.164657749305966661e-05
1.063333201911344228e-02
4.966333994733519441e-01
4.491474180466016319e-01
-8.761057784029818718e-02
2.697324689838258571e-01
3.483527323277071930e-01
2.463370736303167885e-01
-1.273321407507485570e-01
3.296006479408493117e-01
9.792668622147879254e-03
2.798512479608377124e-01
-6.375831730596320801e-02
3.874545184983792523e-01
6.588785801955819865e-01
2.165532399907713762e-02
-1.697600929087689225e-03
4.566067264144770821e-01
1.155568948103821714e-01
5.434242971099321196e-01
1.405479194777248253e-01
1.648387960222813531e-01
-8.142580261256697483e-02
7.672580724290782583e-02
-2.994371501838996030e-01
3.468194133413061153e-01
1.289072806343863342e-01
-9.593551929851770743e-02
-1.870210392766494256e-01
1.462713318412216523e-01
3.905777251794506078e-01
-4.272199974152590674e-01
6.809649664517795908e-02
-1.661034967636608461e-01
-4.727638089806533439e-01
3.434456046868367141e-01
-2.180985068764835777e-01
-5.833037683917338678e-03
2.980152253178917215e-02
3.682999224754443524e-01
-4.824461594435238698e-01
3.126704554766260996e-02
1.348455130698231752e-01
-3.899011081589441874e-01
1.947677698073702335e-01
-1.213426814442403884e-01
1.369591254546511649e-01
5.239973372663951634e-02
-1.138007827827467872e-01
-5.237514864100623058e-01
2.485905822366575313e-01
9.471665733012206434e-02
-1.453226607862866393e-01
-3.265856570080785670e-03
-2.425841199407655080e-02
2.373938286834540445e-01
-3.220007941541552787e-01
1.446801511151786235e-01
5.263871357755167679e-01
-1.318187983929001716e-01
4.153271552334984046e-02
2.364765633066944484e-01
-1.042545210664307387e-01
-1.920774395453917205e-01
2.083023636386587274e-01
4.377001444976040823e-01
3.919275315641342350e-01
7.725476804006771447e-02
3.560249412770597616e-02
5.061425991634005417e-02
1.308772463739543146e-01
2.106157100831141382e-01
2.495507801668537806e-01
8.776754827630720013e-02
1.237905029319810168e-01
2.053203875619992180e-01
-2.350465112837081538e-01
-2.813834017718885305e-01
3.252615019092707227e-01
4.242370794438397041e-01
-9.142658884701013178e-02
-4.538651957712037666e-01
6.168861721040365120e-01
-1.910910727183036950e-01
-3.945158521163358301e-02
4.376340643579121337e-01
2.992878369767712488e-01
8.554842729642347932e-02
1.939824598025965269e-02
2.640666689374409626e-01
2.829556020887803724e-02
-6.200820758873554217e-02
1.947281788673087544e-01
5.880516210923598663e-01
-4.112124998472596049e-01
5.380291845110676263e-01
-6.705566555616646052e-02
-2.331660012374915658e-02
3.922112939856831071e-01
-3.708482307934722888e-01
3.524452842949021836e-01
4.505575801258159679e-02
1.724220179684317067e-01
-1.126594299529392607e-01
-2.350620824383508056e-01
-1.048933999941314421e-01
4.737586977725004311e-02
-1.474676587888829882e-01
2.339514948898359925e-01
1.782355786886877236e-02
4.526567012765212450e-01
7.973884032451634962e-02
7.316617678360569643e-01
-2.879166018091847690e-01
4.195554277266770327e-01
-2.946471540584094662e-02
-2.933921058221338196e-01
1.582157410451715540e-01
-9.122427587442437369e-02
-4.723034493000305423e-01
-5.421601620223050200e-02
9.682741913658496902e-01
4.157982019706565335e-01
-9.827216102868259473e-02
2.021722217674873368e-02
6.710022001611375131e-02
1.263884393043943066e-01
-1.587500312286816428e-01
-2.384036606509341572e-01
-9.940078630684118233e-02
6.804263127507508280e-01
3.200324397419391786e-01
1.553732719241264493e-01
-4.477213591334814891e-01
2.644406563195030313e-01
-6.350195187806575992e-02
2.928690871229825410e-01
3.115693966182643271e-01
3.718106964485904942e-01
5.842036975658178033e-01
1.210768427649670242e-01
1.023618782772201807e-01
-3.558898643956258656e-01
3.549154960472000742e-01
-2.532308141398270651e-02
2.912339253893946878e-01
-5.827354144077849796e-01
5.515784694765760721e-01
-1.769377401810791339e-01
4.661227445367583933e-01
2.043285254983892574e-01
5.595707564781389198e-01
-2.276059382217891780e-02
-1.377315496657472715e-01
-6.060983873965314350e-01
6.028603829055195762e-02
2.568955929799402460e-01
9.977338126380080885e-02
3.581028656326528115e-01
-2.804046107265420473e-01
-4.053877292970641255e-01
-1.652082777180476081e-01
2.598253598308470913e-01
-2.271145578986159264e-01
3.176138668297443651e-02
-9.414121688164601987e-02
-1.865134300442209403e-01
6.376402799011198219e-01
5.300713027948289469e-01
-5.465253268300520606e-01
3.164871656939543532e-01
-1.225588442856919286e-01
-9.231375795529020434e-02
2.445441634582255497e-01
-2.614575514536561229e-01
2.197426272998530272e-02
-1.879410836963469611e-01
3.894015563835881433e-02
3.860312925542082607e-01
5.321485385267303581e-02
2.305313872693429689e-01
-9.747287159643819310e-03
1.994977854710888732e-02
2.906656019235182020e-01
-5.719749185907527234e-02
7.026603202260597869e-02
2.367136736753973625e-01
-2.736295685844949976e-01
-1.448380318033212488e-01
-1.409422590751399640e-03
3.156319255797258028e-01
5.877417561385928080e-01
-5.503078212428628990e-02
-2.342578149956889844e-01
-5.048860304314163328e-01
-3.029146295037362657e-01
-3.955797872468276855e-01
4.572190145422519447e-01
-2.382506240482502868e-01
5.669102865347286357e-01
-1.026702380022192496e-01
-2.231227381625999762e-01
2.116744135605740929e-01
1.747450538906504536e-01
2.459991489870190229e-01
-3.083801960214699878e-01
1.388629016015084927e-01
-2.370638135275473374e-02
-4.516703026348868333e-01
1.408148403665442361e-01
-1.058062289771036640e-01
4.015173384084784192e-01
3.026645856641047017e-01
2.014954709356918117e-01
-1.492986506762883359e-02
4.185753323679675120e-01
2.710449585873231371e-02
2.838821262112143917e-01
-2.430550501360925764e-01
-2.033613752264448737e-02
3.718674308655581795e-01
2.156201234829277780e-01
-3.391594605080918701e-01
7.211979052600028806e-03
2.099776660297265618e-01
1.615766326733825142e-01
9.034743308489670555e-02
1.323269132959165595e-01
-3.571935599292869745e-01
5.492185463769805320e-01
-4.815955094704261752e-01
-7.463757520569269666e-02
-1.305173273106647325e-01
2.524804836147938047e-01
2.864406885950662174e-01
6.756412450171497830e-02
1.671128365080789546e-01
1.455477129143653292e-01
-1.694647998181842974e-01
5.197767593346532683e-02
-4.970057526014404203e-01
3.978259131837874607e-01
-8.600694594360799861e-02
-7.983913700045813799e-02
-1.473552304617152253e-01
-7.457203594851552486e-04
-1.670553409137145451e-01
1.258179945877627159e-02
-2.428974018252599842e-01
3.164386178018598061e-02
3.961923804495098844e-01
-1.967882712747250074e-01
-3.088986246032675298e-02
-2.709755328844716260e-01
-2.702756884206921617e-01
1.311945593363605389e-01
1.606801249688167288e-01
1.687927055060734483e-01
6.784538892318525694e-01
-3.795704000257855149e-01
2.652883211136725095e-01
-2.151465122128133345e-01
3.954165961989108968e-02
4.171465030766917104e-01
5.876216413460810806e-01
-2.116524832489606323e-01
4.676661878255125027e-01
1.456232269867526741e-01
-9.725626412173399293e-02
-4.345011603140493950e-01
-3.003891219702874149e-02
-1.066516745572322761e-01
1.678728099570270249e-01
4.571046883459144450e-01
6.260186042825535702e-03
2.763299932605173814e-01
2.895146075614116882e-02
1.142251980435084607e-01
-1.904655932234318727e-01
5.477791113341256013e-01
4.855595802341611811e-01
3.158005147032388327e-01
2.071997533517909440e-01
2.107139725537550412e-01
5.302298257643688062e-02
-2.600634544532598458e-02
1.814254724488172099e-03
2.399100682014855823e-01
-3.951593004831966960e-01
4.065727203282512026e-01
2.702174863918038183e-01
1.002141427679475727e-01
3.084608862270671881e-01
-1.662159283833684886e-01
2.926439848883102823e-02
2.465888004199377759e-01
3.328172140083172637e-01
-1.577014357083366125e-01
-5.182642871964520115e-01
1.995691581773701984e-01
3.284853016196905839e-01
-4.708719929556131056e-01
-8.526978725144702953e-02
-1.367645347373186160e-01
-1.386977763894749194e-01
-4.730903235107532523e-01
-8.194700392140014111e-03
-1.312459996566578413e-01
-3.010179286222024464e-01
-4.879590715476397333e-01
-3.986728630319061883e-01
-4.221426644093128622e-01
1.127198888640135177e-01
-2.004786594582591008e-01
-2.865347039640557536e-02
-1.074666626776319134e-01
6.678679670023240922e-02
3.704802919438943132e-01
2.300770417642315768e-02
7.453927425134720952e-01
1.423779484304408816e-01
-1.309859972090360869e-01
3.283941550891417149e-01
1.782639658494278301e-01
-1.424407415168300883e-01
-1.399083209981376030e-01
-4.275831793974916861e-01
1.041138918114457440e-01
4.233573882352414941e-01
-2.279182983366574156e-01
1.803845727732832083e-01
-8.609797995041959529e-02
5.674297684981353118e-01
2.571512327310845336e-01
4.364031513476441804e-01
2.241937203741723450e-01
4.821550044554998027e-02
3.344793360416991046e-01
3.226743136845495741e-01
1.750836483820207290e-01
2.614343273517817923e-01
-9.767879728846440290e-02
-1.582423791874151275e-01
-2.223583990590310699e-01
-1.586699216075596608e-01
4.450474116888494258e-01
-2.492079144587136807e-01
-1.453943454049999584e-02
-4.544213422628180787e-02
-3.456021585454275291e-01
1.168480086389736827e-01
-1.959094314265608788e-02
2.339314455327622944e-01
9.344300470741020992e-02
5.874661790726314337e-01
4.248161035290931586e-01
-3.659072189157075439e-02
-1.432955251498684301e-01
-4.632870206445826033e-01
4.028757950916519309e-02
4.637137819245227832e-01
5.816394717987202201e-01
-4.585011451936805704e-01
-2.696066748176150774e-01
-2.283541598402224759e-01
3.865049174761024942e-01
-3.514446877317999735e-02
-3.143297732753101426e-01
3.115400282544376620e-01
2.426205719022483387e-01
6.368799421716100917e-02
1.941580279740264259e-01
-1.096883730404141083e-01
5.502751633974402312e-02
4.650358251868317860e-01
-4.697062688660815777e-01
-4.160324598283827169e-01
6.194376449308738319e-01
-1.183707340521189394e-01
1.777782620316042950e-01
-2.238255722584003848e-02
2.066181199924570222e-01
-5.102594273502890354e-02
-7.855875505631708389e-03
-4.346920644414682955e-01
6.298592551107395909e-01
4.149076657529436885e-01
3.271659685881840585e-02
6.541960509638159449e-01
-3.762471282574689213e-01
6.458122284030097804e-01
1.286835586100625040e-01
-2.160471558394707614e-01
2.574761309071127990e-01
-3.874828820377944627e-01
-4.256129894106195910e-01
5.118812434980596349e-01
-1.490206794828786152e-01
-1.194657081721874625e-01
2.826634141875237205e-01
4.645390271135731997e-01
-4.688976088746473758e-01
3.771505642373607081e-01
1.454849323515110537e-01
-2.610498301512023112e-01
-2.919047711310457927e-01
1.936880990990227369e-01
7.692225968524993296e-03
-5.825715814818369087e-02
6.204045682453291910e-01
-1.650706694097713312e-01
-2.188232100614020681e-01
-2.880300676369715318e-01
1.349260120600285495e-01
5.117444637880651931e-02
2.022003936102567678e-02
-1.221531271078547809e-01
-3.348043473988190910e-01
-3.180280254034850151e-01
2.180665471920872345e-01
2.813873309690006694e-02
3.589577285390135319e-01
-6.886530744265678683e-02
-4.426737096711874653e-03
5.251682838537926612e-01
2.067756825477977678e-01
8.341137144332351483e-02
-2.223646072561291098e-01
7.118784203808506406e-02
2.003707013916842805e-01
2.648747121601375265e-01
2.028488933763766822e-01
-4.455429995679183186e-01
8.160505845200993758e-02
5.425453805410841018e-02
1.271990282087412938e-01
3.638807263081478838e-01
-6.240875249594304841e-02
8.112841338476346476e-01
-2.083735688203919301e-01
4.138725207520711491e-01
1.132148595830626270e-01
3.025699952064322407e-01
1.825944208717367179e-02
6.092179424674202259e-01
-2.077971777456649738e-02
6.894031574498785120e-02
4.577427565471237081e-02
-4.156875103056070220e-01
6.018536599728652181e-02
2.346265713217943194e-01
4.679242965407649502e-01
6.391990723259678431e-01
1.630940580426457343e-01
-2.569882576121964579e-01
-3.034811093320685660e-02
3.931931632314010772e-01
-3.516310300656398657e-02
1.617791648341606880e-01
-3.827670094506849252e-01
4.443289519601669735e-01
3.022451938229418766e-02
3.404960151354482489e-01
6.127514069688467790e-01
3.961834409340275198e-01
3.809002201750937289e-01
2.229287066827981278e-01
2.310914384670656185e-01
3.535528210893411627e-01
4.845377266811754513e-01
1.643177204117249601e-01
-1.600625950953725729e-01
2.676289954919684466e-01
3.479548905590028052e-01
3.461091644278398161e-02
3.203993184235612302e-02
-5.224404465176213375e-01
2.554150706868510423e-02
7.982128679025894680e-02
-3.486434690284295757e-01
2.036481482402507093e-01
3.065244289907258501e-01
7.824151629487990922e-03
-3.847060895956060378e-01
5.400986598127447413e-01
3.518476880643370830e-01
-5.413245065319832738e-02
2.136891482199929637e-01
1.273842423622899012e-01
5.577704478824001555e-01
4.579760842377287450e-02
8.449080008429167565e-02
-3.907568154126098842e-02
-6.309698075664044170e-02
3.324425228841635382e-01
1.318058345898821537e-01
6.772854854936762037e-03
1.302359968687436809e-01
-3.510825949503697530e-01
2.351094830849418671e-01
7.164256243523846601e-01
7.547810946741775884e-02
-1.384618830505106035e-01
-1.154855322027629194e-01
1.012711312433087207e-02
3.764794777712358598e-01
-2.605162677143958994e-01
4.970812709824259934e-01
-7.492945621759048436e-01
1.553071166516168944e-01
4.536702551259637339e-02
-1.399281045406434165e-01
2.434520039838779237e-01
2.616439779120669495e-01
-8.456803973923142370e-02
1.002683120246417869e-01
2.217738312784486021e-01
2.943063665570386234e-01
1.258844894439406503e-03
4.284595149330796549e-01
7.129518590340647166e-02
-2.063491884645790586e-01
3.052003690432097405e-01
7.189761148379714140e-03
4.948840075833220720e-01
-1.035670876633940085e-02
4.325740792845969573e-01
-3.341823122971079862e-01
3.540949093406743353e-01
3.618118547542992780e-01
2.704257602583982900e-02
-2.662094010461858451e-01
2.546604414778266268e-01
-1.127769534865794843e-01
-2.623648537468289965e-02
-7.288834912146734124e-02
-9.609302032800998150e-02
-6.203572949828686789e-02
3.283788073710867117e-01
3.419545810498118010e-01
-7.211753948602254993e-02
-1.041278168991002229e-01
-4.843201386836815669e-01
-7.085024080472235308e-02
3.356366354195385870e-01
1.357200449679244469e-01
3.919666325933682804e-01
5.099252257069750716e-01
-1.409608779705535941e-01
2.706610232584868991e-01
-3.133544421268383284e-03
-1.153089870788076704e-01
-2.467917437911665290e-02
5.164580267522923818e-02
5.035912116580466835e-02
5.219814576578993837e-01
3.275631108991685636e-01
2.357928473281629134e-01
2.319613548852317852e-01
2.081510635865528938e-02
-5.321200209322394237e-01
1.079476736932187542e-01
1.716636893274789410e-02
4.474438120344147451e-01
1.672223690756433623e-01
5.457417487743278228e-02
7.370048294853326354e-01
-6.109681141653952041e-01
2.415347981265687782e-01
3.954736691079319133e-03
4.334991094335146067e-01
3.483714081678805641e-02
-1.024634049997174556e-01
-3.532717802197584689e-01
3.800798942095426902e-01
-1.287386153524718024e-01
2.300060483349227747e-01
3.668264638495967733e-01
3.007640703528677850e-01
8.024833346489655961e-01
2.349642982218968779e-01
-3.765778674960010841e-01
1.545214638353177294e-01
3.422164440310713762e-01
-3.006723137789678590e-01
2.661188395999005696e-01
-8.674514552476234042e-02
-1.313421943833448791e-01
1.233036247189358003e-01
-2.556995429269559028e-01
2.063711422653815020e-01
-1.064947126966578062e-01
7.873585364382854057e-02
4.440194965722437659e-01
1.307258361996715273e-02
-3.484715274101524152e-02
-2.676354414406908466e-01
2.198874462439957544e-01
5.900473600051208134e-01
3.720385951454904250e-01
-6.768990305437280752e-02
-3.710354552970460129e-01
3.657423415336122918e-01
-1.513419538264930420e-02
3.811632588247244047e-01
5.928696943733323399e-02
-1.871521649215779071e-01
2.193131055132896412e-01
1.732664840317546251e-01
8.291952687457434523e-01
7.521153436249720936e-02
3.615128244617496489e-01
4.472505496501881228e-01
1.129694755726752264e-01
8.498188237359340091e-02
-6.718681780550715688e-02
1.516199494077199450e-01
-2.950252063095920030e-01
1.471620208365273519e-01
2.920808983509189383e-01
-4.666682895382915364e-01
5.910995186801062395e-01
1.286418864326749900e-01
3.454863330097619478e-01
-6.944959792168604873e-02
-1.110151833345447564e-01
-6.462840376397426256e-01
-4.727919300400429403e-02
3.077472714036368906e-01
5.669745461942680281e-02
1.653211527935715131e-01
2.792843068369834647e-01
5.608653616018793864e-01
-7.667799584275850067e-02
7.283721933771167278e-02
-7.102063550731596564e-02
-1.202553290580760104e-01
6.718708511958760843e-01
-2.070171749318696353e-01
6.588807697102091465e-01
-1.169680801000512332e-01
4.019197248634335251e-01
-1.489121269972109030e-01
-5.229803066748021090e-01
-3.149699239554791808e-01
1.760651742781753348e-01
5.276829239494668089e-02
-1.111023428021522680e-01
1.195599882172994344e-01
-7.075087917653086755e-01
5.760879170282054429e-02
-3.156577001654955333e-02
2.530465681754863749e-01
2.988781760860924619e-01
3.488389738504744653e-01
4.258947845454273962e-01
3.159279883875960593e-01
-1.534055649213530992e-02
1.340880899852648078e-01
-8.107947911475767155e-02
5.836324676934024902e-01
2.095969638884379593e-01
-4.758910025075793748e-03
7.231435822419897408e-02
-7.828574393648235485e-02
-2.953799655131958413e-01
3.733020599975914733e-01
3.038819160746599191e-01
2.661057000865298949e-01
2.883240830505073293e-01
3.471088193852423509e-01
-1.199210604298930893e-01
-6.810022083323832298e-01
2.128907818374124461e-01
-6.360635797979068418e-01
1.475055316312239295e-01
2.672149590226760019e-01
-3.596873166092275920e-01
3.201980681874108670e-01
3.890723293033505614e-01
-4.374374700288108375e-02
4.116762695828533603e-01
4.688763263821265626e-01
3.003754349650104016e-01
1.853889881165904086e-01
3.320210912432924322e-01
7.541710736768222900e-03
-3.800077267133357140e-01
2.110806582632346884e-01
1.386323765012476839e-01
1.332047006736614692e-01
2.572509899538472089e-03
-3.197899108393956746e-01
-2.678450749949158327e-01
5.420176017673632163e-02
-7.489634143588783100e-02
1.848030218999771046e-01
-3.195345439515789310e-01
-1.001690642851084945e-01
6.073796550269394690e-01
5.900781069865868034e-01
-1.199903256804340373e-01
-5.469751764616640477e-01
2.430516015361749993e-01
3.452451877168400962e-01
-2.594125308815977138e-01
4.225796737040730944e-02
4.008299840593129160e-01
-2.609786994702994467e-01
2.147440427160947352e-01
4.530934876915734821e-03
2.149444606248266110e-01
-1.133238747234799337e-01
8.436270018194549913e-02
1.637973639612944066e-01
6.074344196818687314e-01
3.842693535285300332e-01
-1.947902303011264380e-01
-2.181112655712364456e-01
1.809887014652811765e-01
-2.445475929961061501e-01
-3.415360409289486254e-02
2.922025400522746397e-01
5.798646079864263614e-01
2.847231853341626873e-01
3.158011956713131507e-01
1.080237380698508970e-01
9.707246239569349289e-01
1.035590914780576688e-01
-2.962681402604430692e-02
1.442890490357519873e-01
-1.396819587769999593e-01
-3.122985739684020490e-01
2.752026663798077810e-01
-1.492520018703398788e-01
4.148407746114184114e-02
-3.463030780270659470e-01
2.693849703905115134e-01
3.083410129057982396e-01
2.324713142713445424e-01
-8.572221244211861158e-02
9.679918952719285263e-02
3.478328778271359001e-01
2.425371856297729722e-02
3.734349668462508265e-01
-2.227104466252814718e-01
-1.699506465191047699e-01
3.230709195364489528e-01
-2.489403731843555789e-01
1.806344822454410692e-01
1.578029961197011666e-01
3.021361331036149789e-01
-1.878664281805945968e-01
-3.048618188447631272e-02
-2.589348732625090799e-03
-6.968521506173894209e-02
-6.986407239472323116e-01
5.232188662677711433e-01
-8.045355472629399374e-02
-8.551360589432990822e-02
4.062692425934034124e-01
2.475717053040503435e-01
-4.209456746027485652e-01
3.858986118562295342e-01
-3.079113805336472498e-01
6.601704235365787321e-01
2.204920337068078107e-01
3.180348766715905551e-02
4.820256821095051381e-01
-3.830170584332033834e-01
7.171878017576219233e-02
-1.007095338992845396e-01
2.999751503083361026e-01
2.335199036053303701e-02
1.605697181109674854e-01
-3.257193270143704522e-02
-6.693938037943804320e-03
4.070663955776017140e-01
-4.925687696230943713e-01
3.776264308452174090e-01
5.114329240172645896e-01
-1.055261658784873713e-01
-6.307464952704475158e-02
-2.173748812123458829e-01
3.206932793070343957e-01
3.596676519980211428e-01
3.827368918592878866e-01
-5.393691632188505336e-01
-1.406114809605923111e-01
7.117805008211928186e-01
1.079800168084593393e-01
-9.175217019657062878e-02
2.509849602076835023e-02
1.836295291226822668e-01
-2.583253031700649682e-01
2.639200647078188133e-01
2.409785520483258558e-01
2.836273084313948312e-01
1.616745544847676685e-02
7.329637130918642551e-02
9.954278935341728807e-02
8.375366179803631628e-01
-1.735495780798640142e-01
7.555897554953386885e-01
3.902850292272794785e-01
3.640915010795502949e-01
5.734429881071567703e-01
-1.766327386771670560e-01
1.543404860186836647e-01
-8.860888194500765591e-02
6.091832692033324337e-01
-6.747959951275307733e-02
-1.190947164595804741e-01
2.954304931750811325e-01
1.848456935268628643e-01
-2.016024043971602620e-01
-1.719533443141340323e-01
2.473295675561298923e-01
2.734108861202118601e-01
-2.770304027807143354e-01
2.562951191484534874e-01
-3.910791497167273034e-01
-2.364857695955386863e-01
4.833175416561278359e-01
2.435752934575927675e-01
-2.148925627819498752e-01
1.922214690831410000e-01
4.108306505227549144e-01
1.086726727395471020e-01
4.493272346875556988e-01
2.788875963017741766e-01
1.849082850625026198e-01
1.174696145923966734e-01
-2.024903275235034328e-01
4.224210706688706629e-02
3.970672143566896239e-01
1.556475499838456678e-01
2.096197636974979073e-01
5.084991916537994622e-02
3.932841155103026787e-01
7.007459294026263663e-01
1.836974770920010713e-01
-7.778303729400745659e-02
4.650075577138312877e-01
-6.299164123815005623e-02
5.371798910076782674e-01
3.030514662230339162e-01
2.762613903638335699e-01
-2.099385238604135617e-01
-2.334822070080173895e-02
-1.238490428628503948e-01
3.418310923773045656e-02
4.356803555857440280e-01
6.076680062329988807e-01
-2.515384785341573393e-01
3.649942884617259908e-01
4.285109100859091358e-01
-2.404815654811567338e-01
-5.839871223711811526e-02
7.892258821756550913e-02
2.559205208297519740e-01
-2.833478420170768564e-01
-5.570294957532667679e-01
3.943546546699449040e-01
2.158012793430465481e-01
3.570129578696656925e-01
4.331650193278989425e-02
-2.056709306197548881e-01
-3.954168910026228390e-01
-1.873504309714333627e-01
-2.625832973105352020e-01
2.527950952409500074e-01
2.074961530082878869e-01
-4.393819932063637301e-01
-5.928074032274259497e-02
-6.787782061397169553e-01
-1.041137205336743615e-01
4.692504586410525813e-02
2.584393750392750544e-01
-8.190713621345471762e-02
-1.556487930122900099e-01
4.757220113540551187e-01
-9.602982163087336875e-02
3.738597147065741977e-01
1.097288255594777578e-01
-1.263033363831728983e-01
3.672679707733812471e-01
1.424359821182452079e-01
-2.006372396936467739e-02
-4.364037389870331629e-03
8.899952424168408593e-02
-1.869458092795940329e-01
-4.003040297496591737e-01
-2.100109418295438846e-01
2.984660906601482866e-01
4.100270815711974937e-01
1.946308002795920089e-01
2.970863889254711232e-01
1.769097307119422702e-01
-7.799883200951665541e-02
1.934339258133779271e-01
4.506766609887162822e-01
-2.919773723703808499e-02
1.249645506325364058e-01
1.259206982387937046e-01
-2.343636611403380199e-01
-2.976543934301308925e-01
3.483603722845756145e-01
-8.811946427747002764e-02
3.380624221994158463e-01
1.707403034137866815e-01
-1.518657160565900777e-01
4.138721827974052858e-01
9.904878828441959771e-01
1.508011228800495984e-01
3.392864026478751849e-01
1.236172306969496176e-01
-5.872131510677029986e-01
-1.948917791248813147e-01
-1.260626644505898064e-01
-1.780973457194522380e-01
-1.893434932104379742e-01
-7.961298961370914806e-02
1.610926275259449286e-02
1.397816249036547970e-02
6.287036509088290703e-01
1.513600473615258069e-01
1.438752960352035759e-01
-2.674952735860169351e-01
3.860488920888755504e-01
-3.301013817275588735e-02
-3.048460340684708281e-01
-1.325875236200859952e-01
-4.687808308407176439e-03
1.449130410862908280e-01
3.865491986163530624e-01
-7.201973425384180505e-01
2.464074812698178740e-01
-5.928299032225311377e-02
-1.641261532911952037e-01
6.746343488688271162e-01
1.297409586490235744e-01
-2.228474113730416484e-01
1.357849041046242378e-01
5.301395350220179381e-01
5.666530951792832227e-02
-7.351897906332503785e-02
6.068160383535474434e-02
2.438100121069947668e-01
2.361695269308461964e-01
2.102990195306281562e-01
-8.497548668903148750e-02
2.256541274972753697e-03
1.863588932126312159e-01
1.738846314070103816e-01
-9.834556315052836450e-02
1.347391179678096851e-01
3.475419694115987612e-01
4.258027061200923002e-01
1.721006821079806848e-01
-2.025565833748009525e-02
-1.539816688205747075e-01
-4.383222543819507155e-01
4.310195784922343787e-01
-2.632196853605724141e-02
1.133248559944765449e-01
4.917798496204562886e-01
2.138647753473441743e-02
1.061198702580870151e-01
-3.245563597209027429e-01
4.131182861679251195e-01
-3.026093271523866979e-01
2.987980503291457479e-01
-2.602612059638331754e-02
-1.644319491121826460e-01
4.467817695298949288e-02
-1.663442097529376495e-01
6.073506948070463984e-01
5.833642676301087349e-02
2.256122858519640229e-01
-5.148562975413385479e-01
2.749767557266125650e-01
-7.161428363874242087e-02
3.001319784993215500e-01
-9.614780743923008466e-02
4.137375290654140558e-01
5.627715896047466027e-01
2.087541099254354438e-01
1.414035670417272961e-01
2.194298160182637514e-01
1.767571933380337468e-01
-3.782534607278630889e-01
1.161102539985749416e-01
1.803675271311707407e-01
-7.483577616293203560e-02
-3.138404108089843381e-01
2.368939764546342808e-01
4.337620066343542691e-01
-1.066350933536707735e-01
3.405444015339727931e-02
1.638433255216458495e-01
-6.434824162647870827e-01
-6.252110144780956835e-01
-4.848335712150333987e-03
-3.249689791124336091e-01
6.049016440242713788e-01
-1.931206369521495103e-01
6.579317118681177190e-03
-1.474500445234115942e-01
-2.123151328863916165e-01
2.010176690369517571e-01
6.535769487537879119e-02
-4.401694351901083713e-01
4.172614315513117900e-01
5.352765614463733668e-01
-3.367679367425817083e-01
-3.475682153535177288e-01
7.649039185333392221e-02
5.197815077034831921e-01
-3.042268906147457264e-01
5.304524589243424515e-01
-3.624736710112190508e-02
2.227264701768099098e-01
1.764147042928251863e-01
-4.807308248425190556e-02
5.476686327375150931e-01
3.298038632678174098e-01
1.699535880767989449e-01
5.107829769828492461e-01
4.178794680563693298e-01
2.724829501644928098e-01
5.634054444939917694e-01
-4.228780371959074968e-01
1.343872039720451494e-01
-3.205928464830942182e-01
-2.663713362557402764e-01
7.278134720038190175e-02
7.440092621917090976e-02
-2.330945634449461679e-01
-3.489487469374555340e-01
5.328297674022023367e-01
-3.523148006616554362e-01
-1.437201140975969960e-01
6.725359321185897521e-01
5.210898005631809937e-01
1.781193685394719811e-02
2.998359965988085518e-01
1.950142351036430743e-01
-8.403611848892825198e-02
6.082413467321978739e-01
-1.366571411534442670e-01
-2.330023249222591131e-01
-1.573139217800994805e-01
-9.439679733282331509e-02
2.565547917038744075e-01
6.967359728924611695e-02
2.755534197034789079e-01
4.945316049492416988e-01
-1.256264038240849923e-01
1.147868887877460109e-01
8.522657670438947564e-02
-1.431692707705070622e-01
9.063652511127237577e-02
9.349674882861908065e-02
7.717354753994054573e-02
4.047702176284274922e-02
1.681883029533154106e-01
2.213846121294890390e-01
1.391325893553065907e-01
1.528193811286573250e-02
-3.511648652013693028e-01
-5.690964958913435900e-02
-1.646350186674576666e-01
-2.432611951822812313e-01
-2.604350068239311700e-01
-5.590596548776699537e-01
6.317657040549926606e-01
-3.784518297499342987e-01
4.055278622059956817e-01
-1.056373956332343628e-01
-1.741340285791738718e-01
-1.183687104433849557e-01
-1.301404448099025557e-01
-2.773351185314039125e-01
4.875822177513424727e-01
2.413213939584152312e-02
-1.132793861342320935e-01
-5.575899090358358290e-01
3.797939639891217412e-01
7.041514233655501998e-02
3.439550153680306921e-01
-1.932883828703224616e-02
-1.067699021040523222e-01
-1.066372501385124127e-01
5.349756576785467121e-01
1.911900307627063533e-01
2.418170254191890911e-01
1.490080091978602805e-01
-2.207474854927481134e-02
8.672811345597072896e-02
6.040043821374788680e-01
-2.873185097772454899e-01
2.078656009364986401e-01
1.074767803479494133e-01
3.326248841770221981e-02
2.264908906456540583e-01
3.443053673264620529e-02
1.041442876818695629e-01
-2.433112494256386427e-01
-3.234034735013160966e-02
4.596681660757743759e-01
7.882795854769617527e-01
1.511909068927971833e-02
3.466073456241329231e-01
2.224253718638839195e-01
-2.096934077782609540e-01
-1.242351429197852963e-01
5.897587953673665284e-01
-1.215501965510975418e-02
7.280711645770382434e-02
-4.450873831679841297e-02
-2.159405365368740615e-01
-7.531642596517189314e-02
-9.199659664942129444e-02
5.860458325182562600e-01
7.899422945416503805e-02
7.060796435480610755e-01
-2.913930066440645339e-02
4.073746104422491798e-02
-4.688464873313755166e-02
3.483477862523350899e-01
-2.062776729482404259e-01
1.086592071013849248e+00
-5.345770765038777572e-01
-4.713338943221471178e-01
-6.284408639786351336e-02
4.126007413230756149e-03
-7.045561829633023576e-02
3.683233701198188603e-01
3.129303074306594712e-01
-2.942017306154383061e-01
8.349657646193413552e-01
-4.401499688238430519e-02
-4.975194054930174303e-01
-1.674194518420982214e-01
1.339370808242242306e-01
-1.777232155289089621e-01
-5.011567286796252130e-02
2.216200057258530670e-02
4.412016971872924076e-01
4.314634445750843705e-02
-1.389964999778652843e-01
2.509001352417647990e-01
4.466743079047911791e-01
3.791150276016241188e-02
-2.133109952329954595e-01
-2.923131882956365168e-01
5.512602128562957837e-01
2.465359213521164938e-02
1.883942851554337161e-01
-2.111063934683628240e-01
-1.927260530946425104e-02
5.788499343944925046e-02
-3.812402647648507892e-02
-2.642350033718632307e-01
-6.001438572258853410e-02
1.459687934484025229e-01
1.779491299605973076e-02
2.545937648854744162e-01
-3.624267382330279008e-01
-7.673587660057343274e-02
2.447312577154717450e-01
1.523988949893236855e-01
-3.917907323944160303e-01
-1.556629972387105210e-02
1.951839503283618604e-02
6.925879863923493085e-01
7.030017999646785976e-01
-2.322708899012809747e-02
-1.549794503238377530e-01
1.580416754225392739e-01
4.531554643205052413e-01
1.440992453928924277e-01
-4.770725860023316001e-01
-2.936561237355142517e-02
1.269837040568315978e-01
-3.246088539132335193e-01
-3.158401319091212467e-01
-1.163715153232879607e-01
1.243521966552256081e-01
-3.089081083202437072e-02
-7.609932983481076940e-01
3.833128653488914184e-01
-2.717751107624631346e-01
1.065322207370655028e-01
-3.416779627198821556e-01
2.115271056738964595e-01
-5.648713281296581235e-01
-1.909222061279201160e-02
-2.612745536513360056e-01
-1.967645553415276471e-01
2.304972208191456429e-01
-8.368051419959120218e-02
3.360112335146331342e-01
4.197946571900886270e-01
-3.886051168629357788e-02
-1.902544467000697181e-01
8.418311284205308720e-01
-4.629602020662362816e-02
-1.035567115720067155e-01
-4.280455745425759684e-02
3.171145115951462534e-02
3.067829114627881881e-01
-2.011321649381455079e-01
4.163488879094647821e-01
-9.680943457545387876e-02
4.147218802329031284e-01
5.890653119146708194e-01
-4.037006823914692233e-01
-1.820663157431627321e-01
-1.057798536933180766e-01
2.420355187926103921e-02
5.254511620524299209e-01
6.018753515095380813e-01
5.856366801715453541e-01
4.785492245395567279e-03
-2.673337231345452869e-01
-5.602168162657833461e-02
7.082762792414369624e-02
-2.102201013661371132e-01
1.579739548303772945e-01
1.043997490120365523e-01
-1.285413782751379241e-01
2.619481218091895269e-01
-4.239507175530134175e-02
1.278470895514520755e-01
2.993030585610243488e-01
2.082995300495085189e-01
-1.175310785657332213e-01
-1.970039018290291322e-02
-4.221395390681700333e-01
5.290636182919739028e-02
3.182173805171023551e-02
3.096924653443613451e-01
5.587993823487831246e-01
9.501702946936194105e-02
-5.945389736145451076e-01
-4.954023121155012865e-02
-2.469175552075988933e-02
-5.884728515774807767e-02
1.896262992266489478e-01
-1.235127975037211834e-02
-3.656456329985857123e-01
1.606939617644157769e-01
-1.737074450171112450e-01
-8.292467960914014224e-02
-1.344534250249893592e-01
-5.171149569927788736e-01
8.217922612129568982e-02
1.682261062223803783e-01
8.683416629301410339e-02
4.467757727880981022e-01
1.096833161524525257e-01
5.985228983923361612e-03
-3.068501218022147148e-01
3.327160413520592330e-01
-1.773754644167123695e-01
-3.020334642114800294e-01
1.192492558244434286e-01
7.374599659974039045e-02
-4.127858561993205111e-01
6.914928659445447323e-01
5.254479454488493462e-02
4.329462971511469777e-02
2.209689014102856897e-01
-7.520847593902507677e-02
7.394387869923066403e-03
-1.659628107141174203e-01
2.274120781533599256e-01
3.952494535846879931e-01
2.089146992313559714e-01
-3.232538176088919357e-01
1.296654496386512589e-01
3.972931021314582423e-01
6.934573870298813003e-02
-4.698578727709781244e-01
-4.911607876426062058e-02
5.905264070659947961e-01
5.497271401689292070e-01
1.982065782392533268e-02
-4.509860605383578247e-02
-7.482662564398383231e-02
2.290077766811959847e-01
9.696123704457562664e-02
-5.352619099469083652e-01
-2.770613438181135368e-01
-5.258135170234272682e-01
-1.787081462598669734e-01
3.635488040820020195e-01
6.069684508701263942e-02
5.287511081303346572e-01
1.573252936182434614e-01
5.111738723604981605e-01
-6.140484438161358804e-01
1.811432448069329182e-02
4.629120431615346143e-01
-1.345142521102465627e-01
-4.258944834236143284e-02
5.206046819481453536e-01
-5.275997353659143962e-02
-4.163579131748221807e-01
2.576477193692940371e-01
-1.441484824787155339e-01
4.771699864873810704e-01
5.627010269903021111e-01
-2.385755364510596110e-01
2.591770075893510272e-01
-3.680205526176107966e-01
-7.125754781154354511e-02
4.222163857657061370e-01
2.649938170848002983e-01
4.218187018813252531e-01
2.293015784436375770e-01
-1.806541780940807140e-01
1.798874134261019830e-01
-3.883197259826693948e-01
-4.710551334092599740e-02
3.271440647147447200e-03
1.847818250427308573e-01
-1.054424572521449749e-01
1.076044062708373938e-01
-1.003972858472563234e-01
7.822553545486922444e-02
-3.347758140774480529e-01
-1.193161040491278191e-01
3.626216062537048757e-01
2.830499962675131487e-01
2.543801660647498908e-02
2.565074919082132032e-01
1.409797316378630372e-02
2.245932647368668877e-02
2.370209335562907527e-01
-1.793851641137677588e-01
3.476631469797563656e-01
-2.522903743826314660e-01
1.439513255520050161e-01
8.455800400189186772e-02
3.336270474364217975e-01
-2.652647219750607910e-01
2.867280744093708700e-01
2.877498028810722697e-01
-2.584200848087693236e-01
-1.034956790309634750e-01
-1.802812429945190725e-02
2.815687088040507158e-01
6.208953479545412102e-02
1.714161012132593420e-01
-3.505878144528038476e-01
2.072754522762867424e-01
1.133676781073527096e-01
1.913756442856532347e-01
-1.809934527719894715e-02
4.446119261335024220e-01
1.222096052976926472e+00
1.072606525744636219e+00
3.710159509381190379e-02
-4.614741105943663269e-01
4.178197077689693728e-02
9.692722131696110965e-01
-6.950497770145542820e-01
-5.929727559652600011e-01
-1.787988612059215332e-01
1.467256683662790384e-01
5.295378941398476424e-02
6.890719643077409806e-01
2.476728494243357059e-01
4.912918808956409089e-01
2.336586413971353804e-01
-1.974747503401015625e-01
3.755704340825091747e-01
-9.616370729504181147e-01
7.389883636841143577e-01
-4.337548096939182196e-01
9.339827393183739446e-01
-5.635874796724812397e-01
-1.250793740918117458e-01
7.295503561773326595e-01
4.670044287225411095e-02
-4.298264108265841821e-01
2.200179721816363787e-01
-4.991001161183271639e-01
-5.838005064803158950e-01
1.681859453096687940e-01
9.901059239076218654e-01
-4.231992824903328398e-01
3.517303365095949541e-01
-5.126228161919502702e-01
1.161234793688870059e-02
4.281334024329031540e-01
-2.119016740616327388e-01
5.156934617632045192e-01
-3.854885132843729467e-01
-4.639119141796572143e-01
8.360090050513895310e-01
-4.291483707752736243e-01
5.583487860124850544e-01
2.671851191348746379e-01
4.659932562145948087e-01
5.605050556887474222e-01
-1.030331953323189609e+00
-5.341620034021756780e-01
1.144515569188035320e+00
4.396275207907643923e-01
-6.129613888763292273e-01
6.040783685553231530e-01
8.785345064792028646e-02
-4.547509907317640043e-02
6.704321273579891827e-01
2.747561661275383371e-01
-2.823808253633213750e-01
1.002690067455258571e+00
1.228085825546178372e-01
3.229702781367725928e-01
6.788549493198609008e-02
1.112985399050518742e+00
-7.950365104574940167e-01
1.212716602884404082e+00
-1.472871450856313713e-01
1.787241724754440320e-01
7.999068455876676698e-01
-1.907068765376010444e-02
-8.193847270246080727e-01
2.961780038150368249e-02
1.078809336844854527e-01
-2.540316034931190403e-01
1.411079043359816376e-01
1.146330640354618957e+00
-6.192785342138782401e-01
1.600686964117011835e-01
-6.791505815442528959e-01
9.701296226612217133e-01
-2.335550318070790943e-01
1.496859263006871110e-01
1.147267150190688922e-01
-5.271952169817324396e-01
9.075307498718940824e-01
-7.689305827303652419e-02
-6.193350013022858036e-02
-5.367955909855115504e-03
-9.479727591886915050e-01
-1.268874347150407700e-01
1.091669806262878240e+00
-1.207967267880905859e-01
9.436342738832617094e-01
-2.259906362291370652e-01
-2.845070164393010970e-01
-7.012687875143279737e-01
1.038918369765461369e+00
-5.942886462454679553e-01
1.258031009643586717e+00
4.473631124180481589e-01
4.095358516239951951e-01
6.243592659728394167e-01
-5.807778775930579895e-01
6.962481708366874411e-01
-1.323615251714068686e-01
-1.912267020190985822e-01
-1.187889431802351958e-01
1.053819420517561056e-01
-1.218559370472742209e+00
9.870244751386759996e-02
-1.266707413713512143e+00
-3.435546651808592533e-01
1.353591269769585104e-01
7.020781439771865973e-01
4.696207199271406618e-01
-5.590588452188197666e-01
-6.125567009151278164e-02
7.615021575533574838e-01
9.237291149860005213e-01
3.572041820962650327e-01
6.027695839040810855e-01
2.473570217151658812e-01
3.215918618853508271e-04
1.092032275148339782e+00
-4.114124338812152892e-02
8.772086009039898880e-01
-9.929325589815414244e-01
7.994011468007938825e-01
1.002426251155531300e+00
4.595062801317457701e-01
-2.850245513176628553e-01
7.287737740988551316e-01
7.464597136490805362e-02
6.653707098619404681e-02
1.400805953724226116e+00
-4.079310403997251644e-01
-8.437310111247502409e-01
-2.964879408900346069e-01
4.713468148988439466e-01
-6.403532881818672085e-01
-6.658004190655040233e-01
-5.823632144497150609e-01
-6.498981799200156395e-01
-5.823922676716974944e-02
6.401042623385502228e-01
-7.558423878113210703e-01
5.432531479362282534e-01
-4.019055091223774356e-01
8.028423222798652947e-02
2.752176865939889305e-01
8.206868924679247002e-01
-3.341599546980011937e-02
-4.287352713458659759e-01
-2.718813051373798473e-01
5.316543476558680537e-01
3.331756346715595285e-01
-2.915302730736534231e-01
2.773954646970118731e-01
-6.481327837356923860e-01
-8.629864561803093359e-01
-8.626135251897554257e-01
4.876352229414580020e-01
9.649112522923469770e-01
9.833248388689723729e-01
-9.583203615994601021e-01
3.380964384961800961e-01
-4.996437031405809859e-01
9.344489195324967579e-01
-2.424469318284154795e-01
4.290880784700688011e-01
9.348724750482939605e-02
6.569758206235500886e-01
5.571932722853893960e-01
-2.608793870317445696e-01
-3.915643734234705575e-01
3.445701726292109135e-01
7.347896707605902078e-01
-2.045602562692733217e-01
-3.334556410267144333e-01
1.611789773534041126e-01
5.434127309249983107e-01
-5.207029709771132664e-03
9.098207769477072437e-01
-1.107788540113788800e+00
-4.610108648414205923e-02
-7.258865971055317168e-02
7.815334578141799327e-01
-3.167157495163916425e-01
4.346824902648971367e-01
9.987163913841625718e-01
5.853931426760997647e-01
1.312751441756598636e+00
7.611282776322546573e-01
-9.298440596903869704e-01
-1.027211339733256512e+00
-9.556506651301446831e-02
3.709593071693059740e-01
-9.402058745789770855e-02
1.181259576313445692e+00
-1.320585034906299526e+00
7.941091574920975393e-01
-1.724639586351003340e-01
-8.134078412984371842e-02
-7.823548261835280293e-01
-8.445438735210042402e-01
7.043190412419128021e-01
-5.650765613048767122e-01
-6.178443824023166497e-02
-1.548539566951224744e-01
3.559789139981853756e-01
-4.466103326773639970e-01
1.460359546454620405e-01
-9.601042418062080142e-01
8.602905155232037915e-01
6.655990863892495835e-01
3.753375744238449108e-01
-8.195159489709251677e-01
2.201657922952438007e-01
1.278531139961569529e+00
1.073684441219173280e+00
-4.914053732446566070e-01
2.495695425842714976e-01
-3.970853769491955454e-01
-5.742434154603923702e-01
-4.633924197135194101e-01
1.244851960498973009e-01
-3.078794881945678963e-01
-4.044704069942427482e-01
-5.531631140450140594e-01
-4.763809869334013625e-01
2.405515874328039705e-01
1.214218929083789034e+00
-7.711966255775978274e-01
-1.107668531699246950e+00
-8.924794449701900501e-01
5.047697620765669857e-01
-7.898407992644171927e-01
-7.174412211244496351e-01
4.007176553966794175e-01
-5.839393972046426073e-01
-5.815423438297040448e-01
-1.135713485805853962e+00
-8.664896722351904668e-01
7.569842434037685752e-01
-1.783693215283265743e-01
-6.427092135473233547e-01
-3.202977993007517510e-01
9.456647881849323811e-01
-4.460370857708154113e-01
-2.403308175723865014e-01
2.103283817029152902e-01
-4.505841689907723047e-01
8.600190586243938728e-01
-1.133264779000827449e+00
2.569894255083399748e-01
-6.856936106853646073e-01
-3.257613012732529234e-01
7.860010391172631561e-01
2.855096776274090864e-01
3.909338595759493939e-01
3.408132830141765712e-01
4.580217004997371166e-01
1.633434526079310944e-01
-7.377914317455626092e-01
-9.235571023134024893e-01
-4.855370813811603625e-01
-1.078856534280212998e+00
-3.655992851678667721e-01
2.328430084431323821e-01
-3.108936810173771326e-01
-3.584707806598629865e-01
2.165918491525878620e-01
-9.220328040500096189e-02
-1.418250894393600969e+00
-4.031352097179927707e-01
-6.961450845173534629e-01
-3.475011619398514773e-01
4.501669705516385123e-01
-1.027190463696444178e+00
-8.070382205868333880e-01
5.882793305934114203e-01
7.762400883709625887e-01
-9.107847831560178520e-02
-3.094125378529900550e-01
1.468288969333556793e+00
4.182235573090316572e-01
1.121405584358611485e+00
-9.600777489908463025e-01
7.411592952754106900e-01
5.255765997099312026e-01
7.650510187313901422e-01
9.973921953742491686e-01
5.764643086240445191e-01
1.119336091745884332e+00
-1.766315320756697838e-01
-1.191328076374958744e+00
6.387660383502966610e-01
1.178383428075153505e+00
-1.498017360606636872e-01
-5.160038497567286386e-01
-5.996212118846909744e-01
3.596642237634795625e-01
-5.828546091259775852e-02
-3.867256395022098392e-01
1.126325138371514267e+00
9.285959843608093678e-01
-1.153324288258129826e+00
-1.033149615375176245e+00
1.633012331275195184e+00
-9.923578319255669244e-01
5.528152042715777092e-01
-7.587676550496749162e-01
-9.667802293323377594e-01
2.632454929027314150e-02
6.088256918586570920e-01
-9.896388773332529532e-01
8.500618438698759327e-01
5.151702776613675816e-02
9.313420685311427638e-01
5.919719770537907877e-01
2.018524259163646528e-01
-8.020808618610630880e-02
-9.264078577639395240e-01
4.596293745729746472e-01
-1.726053421780089359e-01
1.302898367634858889e+00
-3.885158589427248343e-01
6.150689086415466189e-01
-2.340497437706792749e-01
8.501197424566713234e-01
3.690617694938341797e-01
6.923876203329005774e-01
2.321419219993879346e-01
5.257721250629190379e-01
-5.008126494973437204e-01
4.279024296044796061e-01
6.921598539073814393e-01
1.589728578848379620e-02
1.040929471040184628e+00
-1.057936973059824676e-01
-3.876517306025489273e-01
-9.209871342946411854e-01
-1.235642110271299859e-01
-2.261406773539098025e-01
-3.886988658197265134e-01
3.603857910470442683e-01
7.300276219612276130e-01
-5.071341181832644818e-01
-3.767702312481538973e-01
4.429304104528101749e-01
-2.187803910180558531e-01
-5.891994727433653711e-01
-5.229267663317607173e-01
7.132707525700195950e-01
-1.899723649291190641e-01
-4.640810519156239877e-01
9.245161257583750514e-02
2.345906841960382350e-01
1.638881781850231589e-01
-1.548282062191938535e-01
5.723320551687438584e-02
-4.653589010959102712e-01
-2.671278047040570036e-01
-3.941010650284748618e-02
-2.285373412002046356e-01
4.017187086736045964e-02
1.558568221756757577e-01
7.054818913461994301e-01
8.050714831798626570e-01
1.261717850921983075e+00
1.576227001545579265e-01
-1.003374000237804431e+00
1.257270125738358946e+00
6.221458648430282512e-01
1.576923852410155313e-01
1.175618384290467999e-01
6.247287059631655426e-01
1.277727471544402249e+00
3.382119309312487943e-01
4.689525898471533782e-01
3.010359875168917010e-01
-9.589955581017046704e-01
-1.957669637357468961e-01
-4.006178423386064780e-01
2.933158279095974263e-01
3.797117946331047822e-01
1.176568637928018912e+00
2.172120535410049513e-01
1.024647421911473621e+00
-6.937677929054817394e-01
8.395372404877098349e-01
1.164392094340279016e+00
8.092651971661208865e-01
1.092293023404446561e+00
-3.574933508633140189e-01
2.455498323821110329e-01
-4.459877494207934445e-01
-2.622829787395597467e-01
-7.475962359565209159e-01
-4.201728936817555882e-01
9.857011610647699040e-01
4.701815148561802604e-01
1.277298046884479898e+00
-6.279157324809057084e-01
-5.555057085666708500e-02
7.970167611660666784e-01
-6.425682274942562389e-01
-7.363051997960037287e-01
-3.712269934012540906e-02
7.958414968835745285e-01
-9.910604166608774079e-01
8.962671568278840484e-01
-5.518935756000795667e-01
-1.026088763194552278e-01
9.406702063269236636e-01
5.625791006466712707e-01
5.304059832022367527e-01
6.053658734351005100e-01
1.011631170014707592e+00
1.280636944377968600e+00
-6.349220799576205110e-01
7.310048930589729821e-01
-2.338226580155816636e-01
6.782886252457092091e-01
6.871450495427728900e-01
7.128923327581098146e-01
1.787079089372143881e-01
6.366162470677455554e-01
-6.707983734645860396e-01
1.239746917652737368e+00
9.162600315441402632e-01
-2.816461540959833143e-01
4.445061415914239311e-01
1.170664257540666997e-02
2.414138242104062471e-01
-4.977638594816039541e-01
5.655357703774627209e-01
1.018442045097271542e+00
-9.342800152679664460e-01
1.110726849763252533e+00
1.042255769348660488e+00
5.835457535728819645e-01
-4.640139295421015220e-01
1.195312103314305263e+00
-1.157543829334171770e+00
7.714134705402148073e-01
-1.090845233180869789e+00
-5.025430153354876195e-02
-1.737572674160596797e-01
-1.087283144607792407e-02
3.808765031534959711e-01
1.231755798393409540e+00
-1.680153170442958643e+00
-5.804758338775727750e-02
6.329500427241465665e-01
1.175749332227250255e-01
-3.657595568991689472e-01
2.069827112606114072e-01
8.221314885133377270e-01
5.397112914461186239e-01
-8.517795953581630553e-01
9.644135184309081676e-01
-7.621472666215126646e-01
1.414127269815811605e+00
-1.314936263571445663e+00
9.087303167052940278e-01
5.397796467386306585e-01
-3.073498361655876421e-01
-6.271503083685452395e-01
9.666068170408729232e-01
9.110374279319997104e-01
-7.998018361227047235e-01
2.856881189678366351e-01
1.147826643812510511e-01
4.902141481242793253e-01
-4.661498690928663757e-01
5.900251500480331313e-01
-9.567365946441788171e-01
-5.467300242856920622e-01
-4.109322356510246022e-01
8.629850068110465067e-01
-2.813135160733625240e-01
-1.287122029394844602e-01
1.031986845027267785e+00
-1.359372607082796336e-01
-5.042272396898994646e-01
-1.765603803623241042e-01
-1.990659994570933011e-01
5.510689087971192279e-01
8.421053458309685213e-01
-9.739040204819349178e-02
1.514029238482648143e+00
6.544583125218150776e-02
-3.949035961458369215e-02
3.417289556452928201e-01
4.755962611200392764e-01
1.293334312506589479e+00
-5.205509895008255672e-01
-3.681834467550346157e-01
-7.592194485630352485e-01
9.059299075548230551e-01
-1.478652846395327736e-01
9.987067744582172057e-01
4.855645032483715262e-01
5.148958051641456812e-01
-1.582397756946973821e-02
-5.622909606805344129e-01
-2.551050136974936100e-01
-7.180777004151169818e-01
5.272897820112774081e-01
-5.123408074536824897e-01
-1.172064696077610435e+00
5.768693787798127026e-01
5.208513546294486485e-01
-4.110018070031780102e-01
-1.483321746575378963e-01
-1.006979966685895622e+00
5.735774363672953013e-01
5.930083268110590833e-01
3.203257645958672017e-01
-9.079462220031239150e-01
1.617740421284018959e+00
-4.715114520478985716e-02
2.030317484006036732e-01
-2.355673347692295860e-01
3.201010655038796782e-01
5.731513383471773526e-01
1.310338667486551922e-02
9.909196725226538938e-01
-8.217330172176726122e-02
1.316563508432086360e+00
1.942672215983314854e-01
-4.704987258212683932e-01
-5.118475063823345605e-01
8.225830983224528825e-02
-1.011008914787838497e+00
-5.526604518052392612e-01
9.619360813785354791e-01
5.770876423842509206e-01
-1.075658719331959334e+00
2.981055090518774930e-01
3.190427221851117601e-01
9.809482739482484615e-01
4.367390007549195041e-01
1.264607811813304172e-01
6.727402698728013331e-01
-1.631099078011630787e-01
-5.504153158653399824e-01
-4.134660695497366367e-01
-4.502022732581884013e-02
1.169441940666413049e-01
-4.875635900416162016e-01
5.550028869369131312e-01
2.018844906035888176e-02
1.396339047689669322e+00
6.150711811329354628e-01
-4.220029699177153537e-01
3.025648205191873163e-01
8.757675704473963374e-02
6.333247551485150506e-01
-9.697197119100557927e-01
2.927143068756111743e-01
-5.616944261899308177e-01
7.193131238398209337e-01
-8.157020927741354122e-02
4.442676335580806879e-01
3.148991901832167151e-01
4.641591536572872712e-01
7.403642246561575879e-01
5.399908359386385026e-01
-9.705169503982787049e-02
1.849688013196130743e-01
1.798559144451635783e-01
-8.494299243780110142e-01
9.734360082946900139e-01
4.366459198793783414e-01
3.087721808788210787e-01
4.700668575490019041e-02
2.344715909918525937e-02
-8.938756124192206443e-01
-6.988182560082439876e-01
3.201098582146250787e-02
3.695302895414954714e-01
6.754306676933806708e-01
-9.092764001301411048e-01
-1.708996139175434359e-01
-6.181163430257516356e-02
-9.573085392689785200e-01
7.172546858296843242e-01
9.866848244619887964e-01
-1.549571693829012164e-01
-5.944323394519369641e-01
-3.447462005718795464e-01
-1.290537700129619769e-01
-7.789274327988422453e-01
-6.397856954552387787e-01
6.746499403097446779e-01
-6.871711629188426151e-03
1.091515966879248456e+00
7.848699803906604711e-01
7.826956169562725441e-01
6.113987781315667336e-01
-3.686094008610726891e-02
1.057277736370422438e+00
-7.903888724675827149e-01
7.919955973100260005e-01
3.748923906531215211e-01
1.947278490940986262e-01
7.391407587330671713e-01
8.880210377223506368e-01
-3.640382248952159783e-01
-7.419855071070986519e-01
9.303689253732774223e-01
-6.190379657455081785e-01
3.493710540287603417e-02
7.101645890484638013e-01
3.779084321861435058e-01
-1.552649097399264322e-01
3.514749936733396751e-01
2.316523580589781584e-01
1.710278342641881888e-01
6.727997939421447304e-01
1.951918401544069925e-02
1.219047551662281403e+00
-5.134950573670316043e-01
9.064038800671727625e-01
1.365257989170901576e-01
3.095569189930403864e-01
1.058580255889530086e+00
6.524056255346422084e-01
8.531851256726731281e-01
5.480830709875463835e-01
1.115759890615560135e+00
-7.593018356349601206e-01
-9.746704715287182186e-01
-1.102711647900219916e+00
1.996718486437459028e-01
-2.393584835601578198e-02
4.652850373864880762e-01
7.784189109564538800e-01
1.858662101432646818e-02
7.794142960494845340e-01
1.081987807754872244e-01
2.940020578489990211e-01
6.692024718845229758e-01
-8.174707614990150972e-02
-3.027407768851402281e-01
-9.920491153392005934e-01
7.649809617786845761e-01
-7.601110967124478091e-01
1.058234976227656193e-01
2.165866811183291274e-01
1.961749021570736717e-01
-1.149078737649592702e-02
-1.693665808863276390e-01
-1.156364976559720370e+00
-4.657503294378508296e-01
2.007210270703563559e-01
1.271715111232672779e+00
3.183254793636990099e-02
1.121241232318064940e+00
-9.143371009738664457e-01
5.578528914386787774e-01
-4.418090704103022626e-01
4.333711812437662791e-01
1.134147030530136435e+00
-1.307514087621075127e+00
-3.800463286178223932e-01
8.747248588670780700e-01
-7.578436025271741983e-01
-4.469718904167264695e-01
-4.134121718169565807e-02
-9.412158161297801140e-02
1.321232586635819328e-01
3.574279217960605881e-01
-4.891335509982872032e-01
-1.860197148433055392e-01
5.791307192414307803e-01
4.029041040324266021e-01
-8.417908955672129823e-01
6.528915365521548164e-01
-1.042109809204744830e-01
1.413930759060861408e+00
-3.815499128964853770e-01
1.308416547203794522e-02
-6.898483063265499204e-01
9.146801134416604473e-01
2.562003922279282309e-01
6.874075178641069206e-01
8.792299346832099793e-01
-8.266839701959851627e-01
-5.680208592993222227e-01
2.761881870675669259e-01
-1.246809892910481832e+00
4.708947288041512302e-02
9.412141710424331009e-01
-3.132466680416020610e-01
1.382931572569489287e+00
-5.358485207611234369e-01
5.786511853025469443e-02
1.163670479456687001e+00
-3.402971949020761611e-01
-9.043254446206080432e-01
3.141860186790095821e-01
1.600429477012720869e-01
2.128366657320870658e-01
8.360832037036969311e-01
-1.113112478024671503e+00
5.289998356834058058e-01
5.049285818685895766e-01
6.574626077263516777e-01
4.923737899463308532e-01
-8.440470133081567905e-01
1.601942031576240488e+00
-8.574849371981931867e-01
1.052160146149291320e+00
5.999796491689257660e-01
1.138901247684175555e+00
5.258823115437313289e-01
1.294099153931502211e-01
5.053113575550203240e-01
-9.411411013264810999e-01
-7.449898686692157934e-01
8.232690748948433557e-01
-2.414553264739716099e-03
6.610995551998358755e-01
8.338193896036731889e-01
-1.411614665482847419e+00
5.449465350376486716e-01
8.654773026110861300e-01
-4.514014680704964144e-02
-6.425141805379857018e-01
-2.679545265488155747e-01
-1.160609154509113727e+00
-1.180115343645140313e-01
-1.044551406722350473e+00
-9.010493507957116899e-01
-1.963382076820638922e-01
9.710703326687943893e-01
-2.745458827337040608e-01
-3.847757579994081634e-01
-6.314615047055899266e-01
-8.900784057867576760e-01
-2.947945323385840477e-01
4.316534694522815019e-01
-1.289471908112248544e-01
-1.107054613141555066e+00
8.270404906072702511e-01
-1.048945209005902601e+00
9.378704750870509033e-01
8.342048387247059660e-01
9.616920662847694423e-02
-6.227286534330400691e-01
1.559393369235030136e+00
1.355084974653051333e+00
8.298614030928868068e-01
8.520789283844980577e-01
-1.023236401966160919e-01
-5.028578398715519704e-01
-8.369328258658929043e-01
-9.772883380945962539e-01
-9.156268889771124186e-01
-8.112921294818465912e-01
-6.492743475583345747e-01
-2.413382490295382654e-01
-7.728882854143231951e-01
6.023113906595747302e-01
-3.814100947229117633e-01
6.014408750980562157e-01
-2.780454747663807513e-01
8.481673244404025480e-02
3.811044370642333590e-01
-2.080389833190026960e-01
3.247954169571998229e-02
-3.660961482719243820e-02
1.443564245342743302e-01
8.904383769561838857e-01
3.937867423486060003e-01
-4.189474576777098003e-01
-9.566091252275931156e-01
-2.561339662483090862e-01
9.929071064776803235e-01
-5.182016597403824587e-01
-5.021471913325359360e-01
-5.913038319366048512e-01
-5.890842727282002977e-01
3.027951891320884714e-02
5.171062853517323088e-01
-6.003798161528365318e-01
-1.204981931260368511e-01
8.439672197972787338e-01
2.836321701200312795e-01
9.717615211274555076e-01
-5.068325069717789511e-01
2.039780104303512420e-01
-4.948169475130170247e-01
-1.206392064785138496e+00
7.860463289008079446e-01
3.053503312550982507e-01
-6.722008794722456049e-01
6.264923298156919174e-01
-3.770016312238699818e-01
8.541101337473563371e-01
-3.760736112671169140e-01
-9.664991772583575447e-01
-3.010747711526248205e-01
2.153192043640531628e-01
1.079043493961553413e+00
-4.042259144543108862e-02
-1.044447319409753439e+00
7.176144948573635052e-01
9.844716928978733961e-01
4.681121973167055583e-01
-8.052412073109739277e-01
3.117228817198595681e-01
7.329598371480211538e-02
-5.491670711539625716e-02
1.075956267771284391e+00
-3.186334166008530366e-01
-1.251941487221229554e+00
4.817581173398036154e-01
1.145309152795929153e+00
9.375490741558273333e-02
-3.076077287154674877e-01
3.643460428841713283e-01
-6.235920571766321308e-01
9.350790259520339043e-02
1.503890673569703018e-01
1.620110079321631646e-01
-8.411659321773595765e-02
-2.136387543114656173e-01
-1.254206306015359096e-01
2.902075259897354265e-01
1.000736890842336968e-01
3.845074781134316666e-02
7.615437179532222878e-01
5.389604863714986260e-01
5.451504153610318149e-01
-4.172473402539603193e-02
1.108040995817056451e-01
-9.944766019374686739e-01
8.886601529066716632e-01
-4.467795842579086463e-02
-5.157329450378356217e-01
4.590908867878532723e-02
-3.421740355221665197e-01
-3.259588023765518927e-01
-8.557115710787150942e-01
3.629183176953743595e-01
1.041473685787203951e-01
-6.108151574124601746e-01
-6.694634254070437329e-01
-5.310883172416838161e-01
6.573170832394460428e-01
-2.955384781259875679e-02
-7.185860497304147332e-01
8.314906272271906928e-01
-8.924682138685008370e-02
-8.762339961473722960e-01
7.057839663593126200e-01
-7.542384464545186518e-01
-4.487355738735995248e-01
-6.731592727741773086e-01
2.603324812862932158e-01
5.784898764525633341e-01
1.619811762678037004e-01
9.451853170627582124e-01
9.035642180391629807e-01
-8.257722849145721078e-01
-1.841760776195275340e-01
-2.936651887143968409e-01
2.481643190547794253e-01
6.122423698003901515e-01
-6.554346111224943483e-01
9.485326969196967717e-01
7.498214511400396187e-01
-4.239937519471120853e-02
-1.189153054682066113e+00
-2.918734162190880221e-01
3.879035141473908821e-01
-7.349600548277922529e-01
-4.764625479476689573e-01
-1.565987370260177314e-01
-2.108798453111477289e-01
-1.601956069117460579e-01
7.159843781205689206e-01
7.840145192669746299e-01
3.719788766213471543e-01
-3.315746426341829034e-01
5.036941346328724922e-01
-1.895325799259831301e-01
1.034080589800227878e+00
1.085970044553922209e+00
8.267504372971240523e-02
1.060573286912120938e+00
-6.585077782829341642e-01
6.393227365154345865e-01
4.639771357753740832e-01
-3.607820537295664542e-01
8.587436747182092267e-01
5.763277395372355949e-01
-5.734799588253510771e-01
3.161860368135261390e-01
3.031428274382605426e-01
-9.719332778562410624e-01
-4.870192561135662235e-01
9.098743259204746803e-01
3.749055573828308785e-01
7.158092902138790681e-02
5.391795368371059549e-01
9.230189201770917506e-01
4.484856545627635138e-01
-2.939083690027381457e-01
2.837079566791577134e-01
1.240769601696086744e+00
-8.774979762415369144e-02
1.258228660566297896e-01
-4.450870689963559168e-01
1.967924543149530137e-01
-6.338649643384306476e-01
-5.625800442664845580e-01
-6.729082676578235223e-02
2.389087530641202384e-01
-9.856161472227381593e-01
-3.170874419232365682e-01
-7.571127135596376068e-01
-1.405180794737571182e+00
-3.896672685310416662e-01
5.341002569988489990e-02
1.856233867991880504e-01
3.629216597011838408e-01
-1.019470185801601980e+00
-1.104223816748300280e+00
3.917556754849421674e-01
-5.200091334232740392e-01
-7.003206403951726111e-01
5.344395174499472212e-01
-1.031852116534118236e-01
-1.575832799467151157e-01
6.567172558747091937e-02
1.654997546588662827e+00
6.221548196298364308e-01
-6.020136319188996721e-01
7.000791961878018999e-01
-1.257201760903598586e+00
9.224818855902572334e-01
7.739653146634581926e-01
1.866027268509199977e-01
-7.901044531275198679e-01
2.908813844342340582e-01
-1.150002973692943797e+00
4.572230297461625792e-01
-2.802376736123414203e-01
-2.229748424428810993e-02
7.367610732303334076e-02
2.441741233449769566e-01
-6.346797084464212979e-01
3.981838915134245371e-01
-5.761547008799119407e-01
-1.508504422349911667e-01
1.235292072895466831e+00
5.686485552713441693e-01
9.030454927153281908e-01
-9.673889778318944810e-02
6.958157257809464147e-01
1.977835550486420346e-01
8.843194352020221638e-01
-1.552736287445544150e-01
7.651484843631164434e-01
-3.072900304338331834e-01
5.735594757715759551e-01
5.443120391608781139e-01
2.515231289841508566e-01
9.928511166191591464e-01
2.244350674612128893e-01
2.180826220010871896e-01
-7.199154348859657659e-01
1.039323302543204708e+00
9.187592623771459466e-02
-1.787460540293841216e-01
-4.984831350813271333e-01
2.714251552401164003e-01
5.467902139917992788e-01
-8.115438987062495446e-01
5.371684960520557439e-01
8.498394380966365347e-01
7.097773083471338174e-01
-5.266956681322123579e-01
-2.699885223057804651e-01
1.140378199034345202e-01
-5.040199357672869862e-01
-1.015951985759929288e+00
4.390815531543318939e-01
2.450197063165190370e-01
-1.178083165558775569e+00
-6.717857528754467289e-01
1.279322307178348828e-01
-9.526548872567786042e-01
1.266717990776027314e-01
6.416483960652856755e-01
-2.645020570748464750e-01
8.656202610098209238e-01
9.448110999614610372e-02
2.569947680311883143e-01
-1.993921240952334362e-01
3.166866401158007216e-01
-1.049214308598987455e-01
4.281308398991584552e-01
-3.260335420356671454e-01
3.670434049950779820e-02
2.606761471151418652e-01
6.474511376381094641e-01
-2.945435744401619926e-01
2.068063008107318135e-01
-1.498769220408585623e-02
3.511164101149095162e-01
-2.282201556379986063e-01
8.249515398744815542e-01
-2.151341571201337288e-03
1.492702668222759821e-01
-2.784086098826017985e-01
7.887003961565153265e-02
-6.387796772902969156e-02
1.066600488865707685e-01
1.039076536754789254e-01
2.095826972092960927e-01
2.615244801222381676e-01
2.160599454227740968e-01
-8.865004108648111281e-02
8.190316659058122228e-01
-1.639757944503919540e-02
-1.049460088299026816e-01
1.771467640710756852e-01
-2.097498157570940880e-01
-5.571657278961393567e-02
-2.550221443221858397e-01
5.338138807105308192e-01
4.502537446954132938e-01
-4.865700652555621231e-02
2.934209928748184731e-02
2.660764224081446638e-01
-1.039531733690922943e-01
1.621900342721185329e-01
-9.442630270868902775e-02
1.960452203912599334e-02
9.035278154437162423e-02
1.045418465809908881e-01
4.555865428067611966e-01
-1.193728349077261969e-01
-2.639947022843777136e-01
6.267919908815605678e-02
5.982130992059388197e-02
1.106384314161936999e-01
-8.355428531297365291e-03
5.635508593976720770e-02
-1.250330514368986345e-01
-2.504868936341073660e-01
-1.221252985692904136e-02
4.522657359722504489e-01
1.405979244168474029e-01
-2.522716436567468690e-01
2.645128183651213050e-01
1.797672491031245268e-01
-1.821519587932823592e-01
3.754671359536146946e-01
-1.601562741757052155e-01
-3.285906166739196443e-01
8.512432569221672907e-02
9.159864789417254682e-02
1.808679528922463586e-01
3.749896486627796177e-01
1.561997516516863693e-01
-4.325375422664835823e-02
7.187917327984059968e-02
-4.014135074325880237e-01
-1.787662493296243715e-02
1.636572328187013148e-01
3.821011360017790293e-01
4.674347100068607652e-01
-1.400958546889789214e-01
-2.071936506261054523e-01
2.739798984355907852e-01
6.588452872936045868e-01
6.379218501365006844e-02
-3.789188555358063981e-02
4.108403731554717553e-02
-9.451334999162447348e-02
1.225732917694264124e-01
-2.085783311702044118e-02
-1.594236264897762323e-01
-3.038011368200506657e-01
5.587869101536842020e-01
3.951238123736809937e-01
3.581540096910291737e-01
6.420805229150503002e-02
1.067281236227938662e-01
-4.250393527275970751e-01
-5.136198198420206806e-02
6.460854309489023617e-01
-1.822364512272763720e-02
-8.324064887074200669e-02
-1.047284344402013567e-01
-1.476034940479144242e-02
-2.522682644854662426e-01
-1.216544938977330015e-01
1.918548599343899430e-01
4.286556730242058189e-03
1.062182368857823300e-01
-3.572860688226495718e-01
1.666746617088427085e-01
5.548412067889197524e-02
1.602880098534479325e-01
7.616736234778048731e-01
-3.838922507271618628e-02
1.621198189848782611e-01
6.436432764819679520e-01
1.416269591503177550e-02
-1.293229487524197308e-02
-1.215906343959435310e-01
2.742214476535057566e-01
1.086126652253841113e-01
1.615530382201691428e-01
2.867267884275855883e-01
2.545631787384780020e-01
4.180634011398679517e-01
1.728531952494061774e-01
5.739602733806314916e-01
1.190610290714303465e-01
9.131841096576029382e-02
-4.039049832781329563e-01
-3.559200309878289836e-01
6.780380864718220657e-01
6.856754526337222044e-01
3.293702618339712229e-01
5.828299022654921391e-01
3.327002473444480302e-01
3.997876738759136850e-01
1.861545594268345649e-01
-2.472189557060442411e-01
-4.947942580147357550e-03
-3.383072087783763338e-01
1.707558940581622720e-01
4.871049838960594958e-01
3.490855641474189253e-01
3.788111867610650663e-01
-4.658040067652688410e-02
-3.396084718099185995e-01
-4.324427538841441737e-02
7.376714787774148185e-02
-5.121888606476415751e-02
2.590799808225421330e-01
2.465422586460396248e-01
-3.991296505347233237e-02
-4.153166138140933494e-01
1.052697083164446878e+00
2.904876209295055856e-01
-3.358323533434125208e-02
1.596548475409814150e-01
3.700119018742200061e-01
-6.108773577549669875e-02
4.789043610414674829e-02
1.894656799760930377e-01
1.742025558266031560e-01
-1.888694005233501616e-01
-9.930781211037248424e-02
6.777948503046050677e-01
-2.434108173582016366e-01
-1.555820417802038502e-01
-2.423946092578794786e-01
3.585067824026327149e-02
4.990693801683497577e-02
2.441965391348746572e-02
2.713342206905275389e-01
1.725821660145804293e-01
2.501234115050433582e-01
7.092179223693644008e-02
-1.810174528207500189e-01
-1.701136591570320267e-01
-2.587185803451469424e-01
1.688004981154038742e-01
-1.181651565768440659e-01
6.864875858709743595e-01
3.098872633985868541e-01
-3.668681233715113121e-01
2.329944481891532970e-01
-2.114310853421730030e-01
1.554061323348407964e-01
4.311370188953114746e-01
-1.049959509656885448e+00
-2.511061652358786978e-02
-2.502569864594583193e-01
-3.431185993691642233e-01
6.362144763825124949e-01
3.263333892710981732e-01
1.415407867754759075e-01
3.946650223564619475e-01
-7.010663180440007691e-02
2.389216884864056589e-01
1.412749962584300967e-01
-6.499130766069721732e-02
1.557690569760082910e-01
6.671131478206598908e-01
-2.321905045046852856e-01
-1.066425058027657136e-01
-6.742981672965492335e-02
-4.881521621273232636e-02
2.516001552568920552e-01
2.177890647933656831e-01
-9.994315401222983453e-02
1.671510164771842777e-01
9.133757870342747165e-02
2.804891303726068652e-01
-2.198156056504312894e-01
-1.289300261770229272e-01
4.962134324826887877e-01
1.501544770354475422e-01
-1.104891183843327018e-01
5.240850873130798587e-02
-6.802087197075089575e-01
-2.330935745807256598e-01
3.594143540763932165e-01
2.977022858157246654e-01
-2.970274738563715711e-01
-1.436290122122882429e-02
-1.418554830149000301e-01
4.964693638678467635e-02
-3.943631649302009046e-01
-2.727700746149364086e-01
-2.636688816658896983e-01
2.914529860977879694e-02
1.237554271844253789e-01
3.696385905785701809e-01
1.452773313665806643e-01
3.389333259008080190e-02
1.680153968605823944e-01
2.371869387690842546e-01
9.108940027801183670e-02
-1.801644175295463723e-01
4.818085696723808375e-01
-1.271185607529584649e-01
3.042558269262196635e-01
-1.903022143432317737e-01
6.795374390995895242e-03
1.708650237720953091e-02
1.165404046277078026e-01
1.677227396026718109e-01
-2.165119158116802778e-01
6.792346485818649970e-01
-5.487613543114029380e-01
4.613595191276363972e-01
2.042370022980182775e-01
2.780510879679199965e-01
-3.294172595055132602e-01
-4.257700010137017155e-01
-4.671684751557583781e-01
1.142451788789982797e-01
9.499630768313477303e-02
7.655572221217418760e-03
5.985862430177810722e-01
5.759535378138180839e-01
-6.849431577443344799e-02
1.297047892963163751e-01
-1.585047322616167931e-01
-8.146589133124074178e-02
2.579794768820379072e-02
3.451664634850049040e-01
4.121665666367892444e-01
1.268102147091153542e-01
-1.301850230589640112e-01
7.694731321414955971e-01
8.591123442722732595e-02
-2.305048320264479339e-02
1.553734423613960247e-01
-1.653030105610025502e-01
-3.891142824449096427e-01
-1.898208400742210644e-01
2.986137165992048814e-01
2.348846883480094072e-01
-8.550746266010077201e-02
-1.269164363985787469e-01
1.283632305456818279e-01
1.899916902186413181e-02
2.655689158338858102e-01
1.790311024051848554e-01
7.132610298207420207e-02
-1.195104571752822198e-01
2.531479870263932397e-01
-6.924400705193534122e-02
1.037963756992028447e-01
-9.743255635739089815e-02
2.066838327504818551e-01
7.568213746043841450e-01
2.094941916339153609e-01
-1.171686074007654565e-01
1.963429643303918337e-01
-1.784784753158607518e-01
-6.662759946587755444e-02
-3.467079577603307539e-02
-1.418830983362411036e-02
-2.995970782419340450e-01
2.155213621934433388e-01
1.596548795614051719e-01
2.784783033367267402e-01
1.667724667774053982e-01
2.985223767605280076e-02
-2.971334415628510972e-01
2.111899820044794152e-01
5.990808870394285224e-01
-2.646539688342492425e-01
-2.241423446301462619e-01
3.401420023738570969e-02
3.896183821948125819e-02
3.486864681339407190e-01
3.142662762793732023e-01
-1.111405590668450294e-01
9.104431564000432797e-03
2.844314068537893148e-01
2.031152000314734862e-01
-1.857196469969724373e-01
-7.391548074418999303e-02
3.233325411526871696e-01
-2.637488349412696609e-01
-1.174309665814189940e-01
1.110422304170335106e-01
3.273394141855239803e-01
1.149931797398094646e-02
1.934321542900908630e-01
7.744318037686144240e-01
-5.035907043604602451e-02
-2.912473828854705848e-01
1.159016753967289370e-01
1.766932076947639874e-01
-4.497525027489103489e-02
1.705717165332736041e-01
-3.098001997681870678e-01
2.234834060547338797e-01
-6.883148855797960319e-02
3.198840575040619028e-01
4.802430760244048163e-02
6.314158008648890208e-01
-1.967424090169762052e-01
-9.455553372705603754e-02
7.036067988892897862e-01
-2.813452975390685062e-01
-8.414407922042753396e-02
1.579947851934569991e-01
3.928938144081191575e-01
-3.323687632800729208e-01
1.268284073265583123e-01
2.785666395601598122e-01
-1.295067567232567884e-01
3.511333090664007783e-01
-1.184704097271984391e-01
-5.064469491130936252e-01
3.535039194211264113e-01
7.337959800808337152e-02
2.811001436328413594e-01
-3.115859442699693838e-01
-1.371574757277458922e-01
-2.731107275474453644e-02
3.887139334009532404e-02
4.381248831608010041e-01
1.151768691056038324e-01
1.828539751500407318e-01
-3.133115551199508464e-03
5.336299385535543671e-02
-6.132441185762063096e-01
4.695260493919567457e-02
-2.209873826388644713e-02
7.941704062089995908e-01
-2.094889970571321980e-01
1.943020124486572464e-01
-2.407000063391831757e-01
9.804279715262417816e-02
1.266743072457540142e-01
5.388883942285389583e-01
-4.612937175254863686e-02
3.718171376055130484e-01
-9.226397662478877382e-02
3.026130111362868025e-01
-3.144082372168719441e-01
-3.223646263716983817e-01
-1.508216836209972933e-01
-2.551780690570927268e-01
1.098870121908759601e-01
-1.167131704026855982e-01
1.646629403309892714e-01
5.859794133896830681e-01
-4.929230622446002519e-01
-6.056574121269031608e-02
-2.246383252584745471e-01
8.670912966439750513e-03
2.826803681844945459e-01
-2.011757102741722203e-02
3.738890271488913286e-01
-4.055604968121788723e-01
1.952649564152417194e-01
-1.535784705183439458e-01
1.755638427975311500e-01
-4.581230062240952694e-02
-5.590590739967633560e-01
2.453742783219972287e-02
3.436223181125196147e-02
1.205975925390617431e-01
5.160266618214998102e-01
-1.718474139847154802e-01
-7.871748675787876293e-01
-1.062059679224281045e-01
7.363530959303982160e-02
-2.299233810615300411e-01
2.699672175879134217e-01
1.037808473227824907e-01
1.666777888641713945e-01
8.157478185528638237e-02
-3.615151483371593644e-01
3.715162354128368483e-01
-2.888512120218852397e-01
3.023565156615191651e-01
-5.876381273420222540e-02
-7.740896240056757693e-02
3.027552084007314459e-01
3.848219598374686967e-01
1.745122537566204945e-01
8.415162813676282383e-01
4.049114771493660392e-01
-2.964145916661303226e-01
4.435051529197369113e-01
5.746840393404187980e-02
9.050140487279683121e-01
2.000830807297571401e-01
3.735521523798772670e-01
-2.916401062975271796e-01
1.315670477653365922e-01
1.978944908840574723e-01
3.040354974538602706e-01
1.896188413060269362e-01
6.059166855096053128e-01
1.354830017895692351e-01
-3.117370984870537765e-02
-8.132641825012351666e-02
-2.690221683730935620e-01
1.638061526381842103e-01
5.492635696303922038e-02
-4.028804250982180868e-01
-3.880530955981841001e-02
4.839543040921331918e-02
4.290870144299827604e-01
3.419153709817943643e-01
2.056175970836174871e-01
4.032764082029243746e-01
3.127126118539157451e-01
-2.502909155528428853e-01
3.222870378285732085e-01
3.999594364426534154e-01
-7.773549596143454476e-02
4.990807352185749196e-02
-3.675980695210970817e-01
6.025276308495559618e-01
4.163480048290484348e-01
-2.689268813304292460e-01
2.405186210159322990e-01
-6.322171984406728118e-01
-2.861294234285156890e-02
-1.692676638051484050e-01
1.017473046331960063e-01
5.098937217484187379e-01
4.484083173658806598e-01
-5.378099257710787506e-02
-4.363131930076509235e-01
7.199128369545353401e-01
8.436753895794307789e-02
4.551539796500614354e-01
2.207703193876257575e-01
-2.237144391126895115e-01
5.695917065267586121e-01
-3.787121089705315358e-01
-1.235749227598793715e-01
-2.337413250034234835e-01
2.891904635889148700e-01
2.876240031865299751e-01
-1.824533156475304785e-01
-3.034097970473471906e-02
4.557027444473504274e-01
-1.142258436305342573e-01
4.094312448197851007e-01
-1.980726728963712047e-01
9.058606575883008105e-01
-4.263252082229943007e-01
4.502419082986888754e-02
2.712794453342939893e-02
6.774322332631102506e-02
1.335011454029767786e-01
1.920897624378778978e-01
-3.281278093234062110e-02
5.627737147471424395e-01
2.296684912020038882e-01
5.927872162653982091e-01
6.952488975459334419e-01
3.165710109196506750e-01
-2.064776487350591105e-01
1.460205310630955378e-01
-9.025203560880104559e-02
5.936719959377354527e-01
-7.033837331675416027e-02
2.028284579251622421e-01
4.003566439480774064e-01
-4.209729906017783962e-02
4.863317372748398038e-01
3.127498305159228664e-01
6.772481138476924012e-02
5.095934203665414275e-01
5.966589089537455842e-02
3.730279455279311707e-01
1.923035922800231390e-01
1.182710401696034364e-01
-2.982247502534529082e-01
-8.691517473600646193e-02
4.944972125409826669e-01
2.746526156674706787e-01
-1.483470355497739368e-01
2.470907378826710243e-01
-1.683657512717839366e-01
2.670752464126789627e-02
-3.360866505916252911e-01
2.854157530242412005e-03
4.178559338872102069e-01
-3.393444776466132407e-01
1.407108073524615532e-01
-1.511106850744027008e-01
-1.733474309573182215e-01
1.090394936131945380e-01
8.960465085122493178e-02
1.995215108010920113e-01
-5.629366411918096391e-01
-2.882357236312568238e-01
-5.825945121926909276e-02
5.625298491241187415e-03
1.657123175548249894e-01
1.535142123857051177e-01
3.279861994115094714e-01
1.758502853193652238e-01
4.779193076391757278e-01
6.366731785489563311e-01
5.815990762247162660e-02
-1.014729902264582539e-01
-4.413931690306821531e-01
-2.212808667536676488e-01
-2.100164750797058888e-01
3.897505746562573425e-01
2.137627342736355962e-01
5.202806879972057263e-01
-2.178698552097255436e-01
2.347971354593623161e-01
3.618646110684742290e-03
4.366273095389759940e-01
-2.673466060219727158e-02
5.143196216878114235e-01
2.389065978062541173e-01
3.990068638603824769e-01
3.092880065541536716e-01
-5.117769286201079293e-01
-2.794089162845334040e-01
4.154061674714740748e-01
7.716601458872793251e-02
-4.251236058081059865e-01
-1.974711792070045491e-02
2.852719111217370540e-01
6.030172155932540523e-01
-7.408464553671582908e-02
-2.744065507893173050e-01
1.323458442619273034e-01
-2.243250109711262263e-01
-1.769389616599009174e-01
3.491527178170552026e-01
-3.778947628465661457e-01
-2.368821863778095838e-01
-2.705286867543152396e-01
5.431953076117461698e-01
2.258634971249239287e-01
-4.492737927289052746e-01
4.102527566959104366e-01
3.148225913775607454e-01
-2.328968641979733412e-01
2.381773086826536878e-01
3.905005621663674154e-01
8.546164335214503915e-02
-1.044930392609386416e-01
-3.939795220428353173e-01
-1.202504194349225397e-01
2.056794437363543560e-01
2.762429706814622521e-01
-1.001880409910559377e-01
-7.189828625688497732e-02
2.445825478405889153e-01
-5.349855181975232687e-01
9.168990651407101788e-01
2.686493039020243501e-01
-1.047667843861655457e-01
-1.458462314772822621e-01
6.598003736707495903e-02
5.763219404421466435e-02
-3.321824087131214354e-01
7.593898163162682291e-01
1.916546877626680578e-01
1.964155667639819192e-01
9.488071666738612242e-02
1.590291265513485708e-01
3.650367177671275387e-01
-1.962531416798276585e-01
-6.041177912395528926e-01
5.681240129262266070e-02
3.085692898820633912e-01
-2.233576863275354984e-02
4.943118467519009851e-01
7.965557803447156360e-01
-1.235977517452918339e-01
3.597998443875545793e-01
3.857255768826369779e-01
-1.948968219645657585e-01
-3.739157497785192130e-02
1.141315796749174938e-01
2.120363778715376457e-01
1.162291153588614206e-01
3.042024096341260919e-01
-1.292868985384039160e-01
1.923842771976215227e-01
-1.875339215519539471e-01
-3.845450756512823753e-01
5.999904444289161365e-03
-3.656452223860536810e-01
-9.228527457084423347e-02
5.953736788124863732e-02
-2.343147658954737589e-01
-2.671602932977319711e-02
-1.105012117643837388e-02
-7.976800197070210707e-02
4.938422655858294985e-01
-1.168421371427794120e-01
-9.480597801271778424e-03
-3.060799295921098340e-01
5.153514103317898831e-01
-8.321640357924088571e-02
-8.270445892129645038e-02
-4.840120789822006664e-01
-1.484312679825076087e-01
2.385301415706364558e-01
1.710775636181065817e-01
-1.879408791830000647e-02
-2.864205540613959378e-01
1.330947875155002180e-01
2.309616378042937679e-02
2.457493582293077475e-02
2.259820649070837240e-01
-3.190967327783385543e-01
-3.540152062543381883e-01
7.156947466973641037e-01
1.836282251783880048e-01
1.007361034885682349e-01
-2.287891917003900821e-02
-3.437924985595617322e-01
1.843090164235536010e-01
-2.331641150631181825e-01
-4.119592457141099673e-01
6.363913629413808781e-02
9.799967581068338984e-02
1.517060071321494064e-01
5.585724106990519466e-02
4.793278991402684375e-02
1.974153409798029557e-01
-3.662060008765904984e-02
2.287573052737011392e-01
-1.422106949525387964e-01
4.350100448573032685e-02
-1.620298337258692378e-01
1.365571625170147463e-01
2.743156617588173862e-01
4.042375506206448144e-01
4.252394610075118653e-01
2.395609365017267733e-01
1.429238163672942596e-01
4.537916753377109758e-01
4.883169592067075904e-01
-1.466257426972905065e-01
-2.151639013431814740e-01
5.328476991332987689e-01
-6.278123263860638237e-03
-1.881179794999363886e-01
4.638931606707153987e-01
2.601282406042284001e-01
-2.701637192597676207e-01
6.032895430046891078e-02
6.093165862838922919e-01
-5.030124044237659353e-01
7.931458594013828245e-01
-1.099266526885431944e-01
3.008231015804729291e-01
5.732009356426699398e-01
4.691754973628351477e-01
-1.675663496647158135e-01
4.721770872021711224e-02
-6.166755176438720731e-03
1.752579946632962238e-01
2.672003918635936781e-01
1.590705471671548521e-01
1.315820465560445518e-01
3.251481496283504802e-01
-4.756134984403171950e-01
5.097910781321739471e-01
1.086792330257384392e-01
-2.329059893277667381e-01
-3.089303039192448780e-02
1.926267363418339706e-01
-3.437638386598256823e-01
3.718948924191247674e-01
1.601036119566031646e-01
2.161378340608560711e-03
-1.603747362899139717e-01
-3.736823202319120019e-01
-6.591128448444377730e-02
4.914310268233294532e-01
-1.869817821763093690e-02
2.890840919398038333e-01
-4.557145780444550598e-02
5.303560264530289281e-01
-3.372395019111519288e-01
1.416903445256758320e-01
-1.517243809707917168e-01
9.071395364058396082e-02
2.194768565557675410e-01
1.914419560698480405e-01
-4.916298394195683930e-01
-8.378936679682238986e-02
7.408134456156639791e-02
3.217445493480446395e-01
-1.528129484182467190e-01
1.726115265483454120e-01
3.451362557377130602e-01
-3.192341665230155057e-01
-1.433002761965020966e-01
-1.724909227594972061e-01
2.152299560634337028e-01
-1.643197109094541863e-01
4.802390225079326003e-01
-2.335847305428297160e-01
-1.306488731630808808e-01
-5.394417099190855769e-01
-4.657548848284696064e-01
7.877414487327338843e-02
-1.856843583037512402e-01
-2.149708837472554812e-01
-3.584651070805919271e-01
-1.394518027352439626e-01
2.800082784808483050e-01
-1.778363320769033029e-02
3.474926114722948767e-01
3.171708266826192557e-01
2.870786860273176200e-01
2.317087859186249543e-01
2.084798941774379799e-01
1.738613364493569458e-01
1.967676642461373415e-01
7.675310995172486273e-01
-1.983011897547913849e-01
7.929391568772356513e-02
5.080495135975036103e-01
3.140206106208820458e-02
2.701158706731776604e-01
4.392219489228565282e-02
3.939142570686425815e-01
2.085853618116280117e-01
1.993138477151512045e-01
3.660942739832741544e-01
4.157728536178616902e-02
-6.617410894840336510e-01
-3.274140498210209582e-01
2.194347473031309503e-01
-7.025235483706693262e-02
3.486022723502710252e-01
6.813814832276723354e-01
-4.039626304028165471e-01
-2.111674428080226873e-01
-5.766396991891346024e-01
-1.265972227711019416e-01
-3.526752947980730801e-01
6.484322164753014706e-01
-1.679195587086672603e-01
2.463131643882693345e-01
1.933504414813467798e-01
7.641363345880941571e-01
2.607101032548619912e-01
2.350307797873500693e-02
3.922941640976559952e-01
-1.770420683687885799e-03
4.179568370937521982e-01
1.718859522484313951e-01
-7.025826853842259689e-02
-2.620599798984614426e-02
5.220025162618582293e-01
1.659931826909690628e-02
-2.833737902594938851e-01
2.338336766810526213e-01
-1.908623345339644506e-01
1.651903839608790114e-01
-2.166071902837617968e-01
-2.314227977352059651e-01
1.276743322728560170e-02
-1.117876496633382621e-02
1.629749141031599236e-01
1.746470799857639811e-02
3.834014988979578265e-02
-1.018092790380273061e-01
-3.311664968042583035e-01
-4.760878260514184168e-01
-1.896275395883520731e-01
-4.102869889045530627e-01
-5.944344614033350571e-02
7.809510196968416640e-02
-3.376885501734637751e-01
-2.323761886068590465e-01
-2.197347539449222009e-01
2.787989611981537275e-01
-4.293176823241429685e-01
5.109318873335058075e-01
-2.955659688194910428e-01
-3.963406709415358969e-02
-7.704717039619578267e-02
-2.530647301948176775e-01
3.033502191947995419e-01
-3.041060531216012719e-01
3.355365731863827472e-01
3.188906182150149649e-01
-1.798320485618266074e-01
9.025371005646262712e-02
2.330042034617830493e-01
2.287301215468038884e-01
2.320194459742306869e-01
4.764309060146555419e-01
-3.379318668479210919e-01
8.188955520072474514e-02
-1.394080610653813945e-01
2.884951626936897440e-01
2.929725912027891233e-01
-3.624502596562380052e-01
2.890236558592003402e-02
-8.893545005412004101e-02
-5.142698423829726584e-02
-4.141819249620343202e-01
4.837924901649559573e-01
2.656293472220502827e-01
5.256929015361374441e-02
-2.488862611372616163e-01
1.435952922114916708e-01
3.298582941633841359e-01
2.643124321981300817e-02
-7.474039986385166978e-02
2.600074530544190798e-01
-6.751136411574770735e-02
-1.743571919698708172e-01
5.760830970157092557e-01
4.334139313116832093e-01
2.139907321159884857e-01
3.711513456708750436e-01
1.780686015283937385e-02
-4.689165646741424442e-01
-2.139934108503060983e-01
2.101464739163099588e-02
3.750362907590700789e-01
-3.003979372487750599e-01
-6.370789971348184144e-01
2.431897821566220141e-01
3.160482824869353391e-01
1.712369774798059852e-01
6.224672208235388915e-01
6.089223915573928336e-02
2.186675203909952681e-01
4.392892659634716618e-02
4.560016524759128442e-01
-1.457697671757986757e-01
-8.794722949162916970e-02
-2.035177673428369138e-02
7.029622803693341693e-02
3.282382496004338512e-01
4.864056721793078575e-01
7.315967170117756435e-01
-1.500553724434294245e-01
8.228133441643746548e-02
-3.473939213470534360e-01
2.833402181605507719e-01
-2.005431162026531378e-01
6.444334707274317064e-02
-4.891864898601283596e-01
4.797896607729951746e-01
1.817204622187941210e-01
-3.031048705594170389e-01
-1.355146244430721070e-01
-6.151907190674285597e-02
2.691562822953887379e-01
-5.948211601026755224e-02
4.599221433792642921e-01
2.626641922530090767e-01
-1.441033022673157693e-01
1.850740020108330719e-01
1.589760796260621389e-01
1.487029124050118223e-03
2.541489142986370076e-01
-4.519725237172015353e-01
3.358081389390292770e-01
2.133767934709993597e-01
2.982737719461859421e-02
-2.620018209055958724e-01
-9.035394084628561862e-02
-3.448464615011086892e-02
4.357548335192744648e-01
2.800379186272233256e-01
2.220878863121754643e-01
2.587968956742734417e-01
6.699766324261698935e-01
6.480807175894335304e-01
-2.249962595671969601e-01
-2.462288488820824073e-03
2.595658727783226594e-01
-5.584018725113566728e-02
-3.129136698864019850e-02
6.842188949774612450e-01
-1.651169843614602450e-01
1.522951320384498819e-01
1.405686758576712159e-01
6.996927358094664484e-01
-3.957125460968936859e-02
-1.583042224107833462e-01
-4.544878571548344182e-01
2.174503117412652231e-01
-3.643932207517350252e-01
2.702436372943092247e-01
1.279827435477362274e-01
1.827716266804020329e-01
-1.106185800808931474e-01
7.390551032546041066e-01
2.104102525342797791e-01
3.641105330649916927e-01
7.925949847303812024e-02
6.678647884535471313e-02
3.373330273344420788e-02
1.952394492936805337e-01
-1.211784211459797089e-01
3.224022594231617522e-01
-8.917944787643325433e-02
1.031849437190623803e-01
5.356117026596565744e-03
-7.683487024080667971e-02
-2.597892643814972424e-02
3.106526787646449184e-01
-2.332950781385789707e-01
1.406314096045627182e-01
3.400368713808584742e-01
-2.484109536541806440e-01
-2.381241810709636142e-02
1.874071017587495835e-01
-1.774099218090327557e-01
5.844059316197207643e-01
4.083846608903309860e-01
-9.915761866194842955e-02
4.555065782739013969e-01
-3.759325700732200071e-01
3.383486543233740207e-01
1.254720462661791658e-01
5.311094952622327225e-01
-3.046526723946144100e-01
2.006234759726457373e-01
2.954989282481274016e-01
2.796673606061215733e-01
3.071407112531889805e-01
-1.874935645593781564e-01
8.689691125070163613e-01
-3.223821472260260390e-02
1.192287670866682414e-01
4.902215966894424293e-01
7.945900573088688912e-01
-3.288639237980142682e-01
4.150098895879831273e-01
2.607025938684749966e-01
-2.681548596547750907e-01
-1.131193089440149790e-01
1.542881407977413633e-01
-3.710297953973602791e-02
5.162561093761923736e-01
3.381196282552496601e-01
9.200447391922281226e-02
6.814370172893327027e-01
-2.058467653212098791e-01
-2.223927933659642642e-01
-1.472093627008355665e-03
-3.746584183069646967e-02
5.363699550236545460e-02
-2.104168765253094930e-01
2.962377483604615724e-01
3.110341122478210707e-01
-2.944252699960566155e-01
1.277574036053564510e-01
-3.809273456113336231e-01
-5.367053383162742608e-02
2.897480058928098706e-02
-1.126693609070658075e-01
-3.128669383728764630e-03
-6.232447851661345739e-01
1.301199442940141338e-01
3.384474425796354380e-01
3.851213977961815971e-01
-8.930007071195618373e-02
5.205631415633099612e-03
1.041835876901568009e-01
-1.609997994567396173e-01
1.288598985088788840e-01
3.512011823065911420e-01
2.730139756152815123e-01
-2.778560945728489329e-01
-4.169255238170384292e-02
-2.911844404214375404e-02
1.684804756860791841e-01
-2.967746617018356403e-01
-3.920672067702712926e-02
-2.441840312084939124e-02
1.430792866144940945e-01
-1.879374305639539555e-01
-3.324679066575716435e-01
3.861883490028742982e-01
6.795712361862977779e-01
4.312819957266286197e-01
-7.344491713783904419e-02
-5.911788261388205290e-02
-1.280504412339780740e-01
2.597210805515506871e-01
-1.105681530776346788e-01
4.324137684296717188e-01
-2.739623126433519129e-01
-5.399350155548928720e-01
1.160003355913763745e-01
7.649899225435423666e-01
2.844445889725242260e-01
2.444165383994190699e-01
3.951307769517837243e-01
3.806264223122841628e-01
3.343669718561321225e-01
-1.704461074372462803e-01
8.162850868619619948e-02
1.007924531841103144e-01
6.418600860173414580e-01
1.035974892478546683e-01
3.352817166586873343e-01
4.142219600125620627e-01
1.129945920088441802e-02
9.273480470006989496e-02
6.586559198637577106e-01
4.027797936254993716e-01
2.587535787050720404e-01
3.239125143385513939e-01
-2.216100134207672490e-01
-4.148127827229772246e-01
3.163893057077331039e-01
1.523944754310980754e-01
2.138066206658054691e-01
-1.281178477590499687e-01
3.142756613323196002e-01
3.889839650025486012e-02
3.573636155971905703e-02
-6.067402689470116628e-02
-3.926883088653681519e-01
-8.378393525780257478e-03
5.965676102579541701e-02
1.079747316792238621e-01
-7.884387435000526911e-02
-2.915644535203021914e-01
-3.175220548894436279e-01
-1.124562377522579232e-01
1.518517764262394265e-01
1.813539332168415119e-01
3.773869282337447562e-01
-1.507380099020085296e-01
-6.090702418885072245e-01
-2.969566792464373162e-01
-3.963369667407512509e-01
9.548912817195795433e-02
5.397719900549743377e-01
2.825504441791411026e-01
4.623977545712117387e-01
4.798069057108469426e-01
-2.347162940048331259e-01
-4.448174205362458444e-01
4.355785381423754044e-01
-2.934144608986944402e-01
4.427732333161020495e-02
1.985951871531811963e-01
7.248956404874122572e-02
1.711488667173853284e-01
-8.817689270741052576e-02
-1.810969721056661097e-01
1.641207486031781571e-01
3.718301487286566898e-02
9.654177873519298458e-02
-3.288226294378542303e-01
2.607362517111622147e-01
-1.854669276858512128e-01
2.950153155232564384e-01
1.993025579349164966e-01
8.575804133531048090e-02
-3.386158625008637291e-01
6.891220045322647703e-02
7.882815322950550430e-01
4.198093014032497350e-02
4.998023252434805747e-02
-2.750268802863439221e-01
3.372831382887795382e-01
7.674947130486133029e-02
-1.532758121372234938e-01
9.667420256319707306e-02
5.706689222740418677e-02
-4.469330611503882777e-02
-2.889584093919452812e-01
2.635422702854883781e-03
2.298859536680928906e-01
3.785724595313062490e-01
-1.873193547082920019e-01
-3.426141041692357669e-01
-2.660001688201180797e-02
3.297252168428473074e-02
4.598573387811665247e-01
-1.379980582516985022e-01
6.596233217781111158e-01
1.279112701288224463e-01
4.109459570583269272e-01
5.837502913067926791e-02
6.583694555705385532e-02
1.701843316407104512e-01
4.421755375995771176e-01
-5.426106972024935526e-02
2.774629283233236432e-01
-3.587370555911503223e-01
-6.245909587468480018e-01
-1.847855472439706437e-01
9.583127502153861166e-02
5.135272043815409804e-01
1.181072377919984290e-01
5.351439945534079007e-02
4.519032676668670312e-02
-3.054003686132944484e-01
2.305500466964938155e-01
-3.863541276512916789e-01
4.738597905724184489e-01
-1.039432789728213791e-01
6.261844513159940950e-01
-2.071654354443447366e-01
-1.387135975777455954e-01
2.732564285126415915e-01
4.420003866932428194e-01
3.060506055403014458e-01
9.859614960590393218e-02
-8.768855846331394255e-02
-1.721858591932393934e-01
-1.378410935838838558e-01
-4.460730393478820610e-01
5.710330748189346162e-01
5.664697756358830771e-01
2.664284098590983807e-01
4.107764734019780373e-01
5.200917117286576463e-01
6.944782511075151543e-01
7.002532074791636973e-03
-1.242339531999969715e-01
3.728617172020954884e-01
8.040470507977023340e-01
-5.066111730554745396e-01
-2.354097067841119106e-01
3.068458929167384719e-01
1.090393613655241817e-01
1.282154598443659699e-01
-8.038074848952394547e-01
-6.361171896641252266e-01
2.088247221999005032e-01
2.089206642097342914e-01
9.347634184471829144e-01
2.509284144662765614e-02
-2.299933729951258998e-01
9.941793208186192055e-02
-5.290487426423494677e-01
4.761969953235805630e-01
4.811023670779740469e-01
1.274332788002194294e-01
1.284695663165698332e-01
-7.661572623049649200e-02
7.233809441031285870e-02
3.363206306302649051e-01
1.809111630031234597e-01
-1.714766577540497716e-01
3.470859535804537432e-01
-1.242976753109141241e-01
4.368603661885878120e-01
-2.668685970650733208e-01
-5.640175310174240508e-02
-1.070158799538464128e-02
1.213460047193917063e-01
-5.690115144635743416e-01
3.020893028350857823e-01
-3.083887851178245265e-01
2.887017237860344809e-01
4.362766487674332172e-01
3.563596270111703962e-02
6.290813762933272768e-01
-5.418604628590674155e-01
4.369205613279175671e-01
3.672687878866922606e-01
-7.014666361071165979e-02
-2.684825576948030035e-01
1.805363745775153128e-01
1.781668499454673593e-01
3.782653589562436913e-01
4.046131744788217244e-01
-5.933967689866963546e-01
4.002583971496486703e-01
3.744141369130660202e-01
1.051678941127928424e-01
-2.469469790763671457e-01
-3.032365325907758757e-01
-2.795201717849370160e-02
-1.037071165461125877e-01
6.191491856475614397e-02
-3.830652826334740579e-03
-5.986842217392768228e-02
-4.844591087324884304e-02
-3.422869371058299137e-01
7.813220677933652158e-02
-5.735027722226245794e-01
2.585735373191802230e-02
4.605571045683228282e-01
-5.814399540193268545e-02
2.954580598522845714e-01
-3.729963898994441418e-02
6.862027317853119923e-02
4.910432260848480723e-01
-1.481468384337808475e-01
6.731816517202898753e-01
1.781730294265024828e-01
3.887776240991492882e-01
1.536795214342838167e-01
2.352282225238801483e-01
-5.301562745099500651e-01
1.463928283617394188e-01
8.736589551491202865e-02
3.732748423988012654e-01
-5.324221515891429390e-02
3.068367941363228657e-01
-2.504035034639375823e-01
-7.445294712085041011e-01
-2.295210467816913014e-01
2.131290362858734300e-01
5.316402420550305763e-01
-1.983336294409774325e-01
6.225770572632270961e-01
1.237017469739309927e-05
-3.104316632264016163e-02
-6.664484992189823043e-02
-4.171621519783629273e-01
5.196916345927529157e-01
-9.705437784834425319e-02
2.732395186331638137e-01
1.520012341661745314e-01
-3.151020229377892723e-01
4.077907973963806193e-02
6.025040731338429656e-03
2.706673507606814910e-01
-3.126102167276701982e-01
1.110982645250366968e-01
-1.979135752124859537e-01
1.176442376939795392e-01
-6.985417848210692671e-02
-1.136354328894053078e-01
2.870645433998353924e-01
2.734600937059982195e-01
-1.301735250171096592e-01
-1.840517721771768311e-01
-2.527236214054003338e-01
7.172556861998655720e-01
1.717083952074980879e-01
-9.454008621494137954e-02
5.664027029117660872e-01
4.040946361235463469e-01
-4.038280407697316665e-01
4.177332280609806214e-01
4.785128253367998408e-02
4.400936333159894964e-01
3.604051470895140996e-01
3.739328538434106841e-01
-1.388680047148744545e-01
1.851200285779230348e-01
-2.377504954308105878e-01
-1.466701397704812115e-01
2.545143501251888596e-01
-1.368973230326850643e-01
-3.649692194786298138e-01
6.367724320927383719e-01
-6.710881947094218813e-02
2.228605335687814659e-01
1.894776382800239523e-01
9.430907879764807711e-02
-5.804989531142353831e-01
1.425766689640987073e-01
7.556463014366487929e-02
-1.020858796919513478e-01
4.846520616805177761e-01
3.493177021246797187e-01
-5.739939766499000395e-01
-1.372229634232362550e-01
2.186205257305620930e-01
-1.927378718196696705e-01
1.836089250412580032e-01
4.380418241881151725e-02
2.000626361715060753e-01
-3.355672848192325364e-01
-1.520141296097640704e-01
3.939656069647956005e-01
9.225133706597507532e-02
1.612068390215826430e-01
3.869294281571773048e-02
2.755590932092846779e-01
-1.327592697420265644e-01
6.094042218316896714e-02
-1.084477029113235236e-01
-4.910424316911615739e-02
-3.313225400779545859e-02
2.112241016796480297e-02
-5.792863007797249830e-02
1.726283639892712829e-01
5.238948997378095607e-01
-1.033800189924626717e-02
3.325246997577989694e-01
3.697700182727390317e-01
-1.946832836800038158e-01
1.157813607894698504e-01
-1.957211350050715726e-01
-5.766842269947843880e-01
-1.233841306838789759e-01
-1.338463936712350755e-01
8.788703142367657595e-01
-1.633480315774162306e-01
-1.318770368948633809e-01
2.126999917183411415e-01
-3.108135751543845970e-02
-1.042035211377490556e-01
-3.870744371340080203e-01
6.276684972041505217e-01
1.465052075334599135e-01
9.021807646614360410e-02
2.706864077373349331e-01
5.648566658100425686e-01
5.836028019554233559e-01
9.990245499424983688e-02
-4.140216010744730002e-01
-2.075598649537416795e-01
6.225247501586601839e-02
-2.606356176937468239e-01
-2.838154149135619919e-01
5.501950793721833294e-02
1.265473468352640851e-01
-7.192690976972893058e-04
-2.307196125232916506e-01
-1.738898911542201831e-01
-1.091649881645653380e-01
6.875297925235347718e-02
4.586230077413014916e-01
1.943317533381531681e-01
-2.059162727863327880e-01
4.156941708429650606e-01
4.141732421410926346e-01
4.391613947479308111e-01
-3.016223105067683541e-01
-2.141183578140533617e-01
1.154982974100314252e-01
-5.809185480160339310e-01
-1.522989668172571309e-01
7.171645669692878755e-01
2.856051159601016853e-01
6.624940513448372981e-01
-1.886343025398227735e-01
-5.951750490740336241e-01
3.183585019015418988e-02
3.033971345601686048e-02
1.455640492902184335e-01
1.491585845231282459e-01
4.320856250363644402e-01
1.142279843201718659e-01
-1.017013294417849906e-01
-3.079029627188651919e-01
-1.452940229782213599e-01
9.627408409213773777e-02
-9.867437898976971766e-02
-3.247399072937540709e-01
-1.990070996900875633e-01
-4.517884820172850258e-02
-1.041259970783877942e-01
4.860520742826011098e-01
2.019252133426600870e-02
1.045345368849338596e-01
-1.644305355573291438e-01
3.467569795279865780e-02
3.975293473491929852e-01
-5.896568981132692400e-02
2.432233340780787789e-01
-2.700516263020329849e-02
-1.378097526665865991e-01
3.205692648572540659e-01
2.648203823992564265e-01
-2.697646347295143965e-01
9.780275378337028869e-01
3.658932250181349821e-01
-1.596742536398396139e-01
5.950033195878564607e-01
4.369949688755370154e-01
-3.611659672405465038e-01
4.439045846885822932e-01
-6.575716821432396608e-03
3.719863247529662242e-01
1.004653020622216369e-01
-4.670421092658325057e-01
1.443138855631135309e-01
-3.648050621349086531e-01
5.157089399497382098e-01
-1.563347676935338548e-01
-2.521108907380139597e-01
6.691214322640057222e-02
4.084036541497044759e-01
6.487926471310444532e-01
-1.488593507045156139e-01
-5.636526562902884896e-01
1.437428567435687365e-01
1.013396915116973052e+00
2.487907073351713905e-02
2.400221491500148796e-01
2.586071026191731348e-01
2.794913168128768111e-01
3.339348290023365085e-01
-1.436658416433410634e-01
4.515534672950737294e-01
1.508349468784196401e-01
1.635744493367811275e-02
3.471422482997125747e-01
-4.054283815710065242e-01
1.016765298516617289e-01
9.371949009873004055e-02
3.447078949233401968e-01
2.634282427350545519e-01
-3.566005196115860088e-01
-6.896941436375150780e-02
-1.936297970484842645e-01
-7.027868690975702659e-02
-1.159915130531578298e-01
-5.838507381380900196e-02
2.420404377122965522e-01
-1.547480030518876282e-01
5.136891547048515472e-01
-1.026411818014863336e-01
2.457361783534053046e-01
-5.081785854446124739e-02
2.194784461213626081e-01
6.806339233473815420e-02
-1.770771371032769659e-01
2.017627411704520091e-02
2.299602730006773676e-02
5.276621784170388851e-01
3.086698061172604701e-01
3.945466585462773512e-01
-2.490153580499205599e-01
3.366428835478133541e-01
8.769855010734239897e-03
-1.775115810970133157e-01
1.362569593026945469e-01
1.395604070921463435e-02
2.454991968520356116e-01
1.208964002578026137e-01
7.152533158229451571e-02
6.996537937439170629e-02
1.242131296628579823e-01
6.782809936938247741e-01
1.117658405250177012e-01
-2.791786522679149396e-01
5.481325392271962915e-01
-1.385669757505211264e-01
1.484475936285752362e-01
5.059100523641224534e-01
-2.109413625018238259e-01
-2.974605760762669138e-01
4.587211508123219261e-02
1.894667026779602026e-03
3.347620947543413633e-02
-5.835957339012108891e-01
-1.372809934182535052e-01
4.438948505926888499e-01
-3.746661555680981248e-01
-3.487695009000806728e-02
-7.134143558424112241e-02
3.860609034591779842e-01
-3.147138757863411906e-01
4.771844405773931208e-01
7.521598405946913757e-02
-7.477297778613652968e-01
-2.573659098676923107e-01
-1.903883424226521237e-02
2.386928135660305872e-01
4.185903382395285699e-01
-2.281617460898933136e-01
-1.990860130508979031e-01
-3.163864174290628162e-01
1.987205547416136531e-01
3.815261087181008870e-01
-2.589082400156864638e-01
3.191302165965552162e-01
2.745168936062877263e-01
-1.347101428349108398e-01
-3.379559525126530350e-01
9.487618472118612700e-02
6.917000032047369018e-01
7.855106641824771696e-02
4.718282316175859137e-01
-2.143498095362790234e-01
3.966070945166958461e-01
3.085763928277486245e-01
-4.024412179021722991e-01
1.315255306773694954e-01
-6.251985574810975388e-02
3.902678901167265513e-02
4.555101653163179387e-01
4.236169165507840395e-01
5.593668380482488267e-01
2.908183710065197561e-02
4.939335451145483724e-02
4.504761044492650024e-01
-3.834241558257346361e-01
-1.737911130453460018e-01
-4.996643552362017848e-01
5.840749130745902518e-01
2.185983756159352864e-01
-3.288846957891767286e-01
7.425465415563170524e-01
2.491789702331164147e-01
-1.030862479189084691e-03
-1.060706277570613587e-01
4.785609382237100973e-01
-7.629848006782957714e-02
7.985443532492192409e-02
3.511197279143215000e-01
4.366062059236311965e-01
-3.458959336959399056e-01
8.553101664881417043e-02
-2.792598971265287111e-01
-2.244391898246939077e-02
5.659872052232153838e-02
8.012158945756096828e-02
-9.355348525835187334e-02
-1.438532219530801459e-01
-3.499605797510191851e-01
3.545577197679596337e-01
6.636384272268712747e-01
-1.779001922799488267e-01
-2.516796395586093915e-01
2.227894148386552753e-01
1.775466876408747785e-01
1.749558565180416858e-01
-8.317154405807157536e-02
7.214308656425010013e-02
-2.048085827654780311e-01
-9.824956830569017696e-02
-4.280455183226750671e-01
-4.371185555247362187e-01
3.110580576900664335e-02
-4.023198428485691425e-01
6.037617137645828053e-02
5.263007742811738332e-01
3.755635458344681182e-02
2.747448904394748648e-01
-1.213863832161250489e-01
4.068432578227556551e-01
2.818082061460344678e-01
-3.324925968717159508e-01
8.253737582250551819e-02
1.699359507573891537e-01
3.235331888138519019e-01
8.117278918149255229e-02
3.319715444152638306e-01
-2.751012675627219073e-01
5.512327959990064308e-01
-2.717952326021579879e-01
5.179979518660627891e-01
-2.002318508459772217e-01
4.704479090083049098e-01
-6.874804610772207170e-01
1.397031752122170345e-01
6.151495550767145382e-01
4.655657183557573853e-01
-4.692100643377281610e-01
-2.926048899013912186e-01
-1.254624005425106215e-02
-1.911869909828632641e-01
-2.156588944952583242e-01
-1.089108055816727372e-01
-5.727399777620595378e-01
1.580666780517563375e-01
1.517369389594047657e-01
4.336847538658554768e-01
-1.775121747952158324e-01
1.674451369609001317e-01
1.447900961784479856e-01
1.239572860556454464e-01
-4.755927392677861687e-01
-2.279957125088806491e-02
5.353342624720375253e-01
-1.942745738293670810e-01
1.014192632455874210e-01
2.259386565843400085e-01
-5.669949631432363857e-02
4.152972430407588789e-01
8.203773156699709634e-01
2.579766285354830879e-01
5.813361294907262167e-01
2.467596764595053060e-01
-1.215275191419580847e-01
-2.972540095877308497e-01
6.994050470097981087e-01
-1.344316137994543692e-01
-3.012770261319236420e-01
3.980100692519790151e-01
-3.529200822931322090e-01
-2.950271814970763240e-02
2.766557884346859675e-01
1.709939326421103245e-01
-3.488838514875384211e-01
-1.281459169088637329e-01
-2.997549258439849984e-01
2.025066853993242044e-01
9.622363318084355133e-02
-1.480101304772809823e-01
1.231431704884046047e-01
4.648700819787032756e-01
-2.303945544504336362e-01
4.784709623504583842e-01
2.435056956495436908e-01
-3.468769381735612445e-01
6.746613153186706846e-01
-1.929792327907650373e-01
6.106572666337265476e-01
-3.388516876132696698e-01
2.276674887577747886e-01
-3.630713750430241693e-01
2.462947358564783751e-01
-1.519562594703033065e-01
3.157006933080327427e-01
8.809479003671730202e-02
6.885595452887183221e-01
-8.231070806676749063e-02
-1.280568198150517645e-01
2.185655645421678284e-01
-2.866109834022037006e-01
-1.002561066301754511e-01
3.020175481898196845e-01
-1.589618452436175888e-01
-1.194784248845308788e-01
-4.852732280187975478e-02
5.792608906076007758e-01
1.835805420038316704e-01
-1.426746491051981425e-01
-7.925845562331818028e-02
-6.697157037779469246e-03
-2.722377287697319570e-01
-2.911963951323018329e-01
5.515703386349143367e-01
-4.461813462779533335e-02
4.131965083492599722e-01
-2.912372495449470633e-01
5.670674348483715210e-01
-5.557949254976575215e-01
-1.310144416262299383e-01
1.033725409141888485e-01
-9.081904878374907897e-02
3.917935670681035876e-01
1.557565085398597282e-01
-8.149221862493876145e-01
1.919086576338898675e-01
-2.144247083591657166e-01
9.394990243063898738e-01
2.870538763658874171e-01
4.838738201120640348e-02
-1.767028045398974512e-01
-2.323871609455160914e-01
5.255607653726330764e-01
1.024287192087092041e-01
8.467404173916406318e-01
1.420024385137881873e-01
-1.095904512534431885e-02
-1.148054618144626754e-01
3.427527086806998052e-02
1.243153039468303384e-01
2.236150059654361533e-01
5.900895126596024109e-01
1.109726998227564404e-01
-1.844711073675004975e-01
4.938907840972871222e-02
1.632307477295246168e-01
-2.282853320355807680e-01
-1.598425713628388034e-01
6.452831768108943655e-02
-2.619427314297424481e-01
3.823555587527118771e-01
-5.937994164849325768e-02
-6.129585411881390000e-02
-6.068276308529765850e-02
3.010031879613753181e-03
5.593337762525026069e-03
2.864380738787404290e-01
-1.930591638421771672e-01
-8.692928309765096673e-02
1.397149013315005517e-01
-6.777420424376074948e-01
-4.398844251203563871e-02
-1.845545782104085486e-01
-1.703076331868334514e-01
1.631274184447030484e-01
3.701150191911188325e-01
7.066584232263626308e-01
1.273863123905570327e-01
-5.695532682470927366e-01
2.685020188649192008e-01
6.801765513181323719e-01
-3.386118549851982462e-01
3.859273934896771396e-01
2.893599909684072546e-01
5.142026924287113054e-01
6.903233262174840457e-01
8.482643250285724912e-02
4.110695724800234735e-02
-1.740591622881691169e-01
-1.021238305291699844e-01
1.837122929599907528e-03
2.089685803549495846e-01
6.169394323988703493e-02
1.226571394418464606e-01
-5.225050053067259448e-02
3.121121851659141022e-01
1.255966715760123698e-01
-5.607004494438130870e-02
4.402922785618337831e-03
3.252826879067879928e-01
2.070735940409820786e-02
-3.476933290656075703e-01
3.942886774557348151e-01
9.376441309011915859e-01
-8.469013228657872316e-01
7.381009672798971577e-01
5.968351639106550532e-01
7.101772976734819220e-01
1.227800565919987097e+00
9.883141990596602255e-01
1.446812558370700330e-01
-8.872895239528564293e-01
1.770845490393808397e-01
-8.307877164789743141e-01
-8.808754087908337027e-01
-6.815178260807196464e-01
4.658297257819433712e-01
3.211891958626303945e-01
2.695448338687785328e-01
-1.419221816270574532e+00
7.130163753076869115e-01
-1.311488987134713513e-01
-2.419370446967891372e-02
9.930188165203602813e-01
6.419812523297336870e-01
1.542825615233228476e+00
9.420423977242782243e-01
-3.152470171694346512e-01
2.366821810809839333e-01
-4.374775473372515822e-01
-9.767275915463018432e-01
-2.825658146461285103e-01
-1.257844345165600064e+00
1.022384724146145452e+00
-8.399037305994495606e-01
-5.465045825581587025e-01
-3.398905155408387113e-01
-1.002965361875086225e+00
-4.613499681199951380e-02
-1.157310645013614359e+00
-4.387983863853576194e-01
5.190964591705518605e-02
2.885392283743278274e-01
-1.173350348046862113e+00
5.284765791253140943e-01
-5.757526188577151149e-01
2.129076018771835499e-01
1.154199140756241970e+00
3.676266160902245117e-01
3.634065561659928778e-01
9.439269931703724303e-01
1.894116281756814679e-01
4.945280156468763733e-01
6.768301189333887358e-01
-4.977979354154723479e-01
3.772968014891746602e-01
-7.635215358843309152e-01
9.141607787884657721e-02
-2.291426415370615977e-01
-1.402770369222421376e-01
-2.108606686628125559e-01
-9.844751592277790619e-01
9.740294450877935439e-01
-5.406274589254402851e-01
-1.249538916069857786e-01
-1.363186444173146272e+00
-6.634609272162936833e-01
-9.922573149425223393e-01
-9.194151810426420823e-01
7.050683241696993342e-01
-5.452281158362514146e-01
-2.890380551012963206e-01
-3.191415271380967922e-01
1.748120807574342628e-01
2.452907549129021980e-01
2.471343355300857358e-01
-7.897153524296252058e-01
1.398534852911820781e-01
5.942553113606765525e-01
-1.306623419868270020e+00
7.902202442830281726e-01
1.743034112494847021e-01
1.429026665791940376e-01
-4.968159263992341090e-01
-1.159125798559920595e+00
-6.234711148822966731e-01
6.845763191370886069e-01
1.304724443734688322e-01
1.729019791654236027e-01
2.323733950980211849e-01
-2.257555440219238263e-01
2.694054910264787051e-01
6.626070856247761043e-01
8.281150979987581540e-01
3.671579059984401150e-01
2.703557791188658244e-01
-1.265933536692891437e-01
-8.663527353391305974e-01
-7.459599717260443352e-01
4.497839552602667101e-01
-1.967050333993302091e-01
-2.133598478245767316e-01
-3.356672620917689476e-01
2.420803591583282066e-01
-1.001967903386843162e+00
-2.357446127272335157e-01
1.175008232429299027e-01
2.512274679895100116e-01
9.063912195264862692e-01
5.670129434458505147e-01
1.850235631940548298e-01
7.529779334770275723e-02
8.957722342908109869e-01
-1.639742065007110394e-01
9.139275885007640543e-01
1.247102350183609376e+00
-2.477228439168502327e-02
-6.899711181952291605e-01
-5.503695651239216557e-01
1.775291812711538020e-01
-6.845413975944545371e-01
1.091797898061384942e+00
-5.178983861137088640e-01
2.088058966106319247e-01
1.152403073911234754e+00
-1.013445255128942790e+00
2.000224900452752252e-01
-1.311059077463644362e-01
3.567416589851136188e-01
5.329411187127532923e-01
1.607063843553813709e-01
-8.154755727643985264e-01
1.461873390058582300e-02
3.233212634956031395e-01
5.847430171424961021e-01
8.249844507280440498e-02
8.401994451333963387e-02
9.560821348339393344e-01
1.812683408564804144e-01
9.144782817479466530e-01
-2.763614241990992593e-01
-7.185847879183639986e-01
-4.537106290616543802e-01
2.667428491250045663e-01
1.386965289249878053e+00
2.143291055176245186e-01
6.178732418607114640e-01
4.531364117590236384e-02
3.934659948401955654e-01
1.282190342721019283e+00
1.436945771827796148e-01
3.083602746478650847e-01
8.921451807609450668e-01
-2.886124738387680910e-01
3.602353108622740607e-01
7.110346788403161256e-01
1.090249549289945330e+00
-1.072112187735768107e-01
-3.223203562425172031e-01
1.081131019525050085e+00
-6.813690852612785953e-01
-1.793599916932510085e-01
-1.709955402795154678e-01
-3.524762859909728041e-01
-6.135157084920631609e-01
-7.776618841201432542e-02
5.448814108047780325e-01
1.036559091172866376e+00
1.095008645592559837e+00
-9.161893413668756869e-01
6.371491309956441862e-01
-3.707815402627232526e-01
-2.132353243223424344e-01
-5.057560649753496396e-01
3.155131970376131023e-01
-8.032682422259322941e-01
6.441736040724557188e-01
1.026007551223434566e-01
2.863450499493372936e-01
7.373614520010962625e-01
4.858130788386800791e-01
-1.018373852114073053e+00
-3.052631431351797708e-01
8.140270116428152680e-02
8.820749298188200471e-02
-5.948627995522349776e-01
-6.246394496488369974e-01
-2.092063123756703891e-01
4.508497805825146809e-01
-2.317155570893379146e-01
1.095537098168071877e+00
1.592574760365985109e-01
3.796971704983578833e-02
1.084088173122866650e+00
-5.849233922754869253e-02
1.194222883235694699e+00
1.641434708474709958e-01
6.487879668760443419e-01
2.554484956008831187e-01
7.166569841125405294e-01
-1.322985197361820742e+00
-7.446640734356708702e-01
5.873137196685811467e-01
-4.946227045343665196e-01
1.784618764121205792e-01
2.551970124331883749e-01
-8.143710408182667226e-01
8.976169446978833344e-01
8.395404380048704374e-01
4.370417820020796040e-01
1.084961976542387685e+00
-7.336341827589999420e-01
-5.719590334094390993e-01
-1.995475811512646691e-02
1.249525722900695968e+00
6.115003172859267977e-01
-2.199953701677043738e-01
1.485088064934059204e-02
2.645169368424840073e-01
-8.029154804925306976e-01
-5.718175410609184217e-01
4.070877108432616187e-01
1.401975348321841952e-01
