6.290812688422144083e-02
6.519593756522910899e-02
6.695014683235558928e-02
7.016586681528241831e-02
1.397875850364649619e-01
6.492106148382759123e-02
1.162402764332411964e-01
1.798925362685751053e-02
3.976249716757997849e-02
8.075114252839744877e-02
7.351783034056280641e-02
-4.060306168174321328e-06
7.782352786573495940e-02
3.357604927011167972e-02
8.518544065615515914e-02
1.229022041475618249e-01
3.394996179122603680e-02
2.120095335474045731e-02
5.980009798733172677e-02
6.246070770226619384e-02
1.298475081327993552e-01
5.362835424940411155e-02
9.261745485025457691e-02
6.374108060414535037e-02
4.752198108492080436e-02
4.582852081168668767e-02
9.430643484783141073e-02
7.250274493954760036e-02
7.475241897442154448e-02
9.282145151518986226e-02
1.368965481114707283e-01
1.034690097763884820e-01
7.212989325320601219e-02
8.366881486587575412e-02
9.456751479176600528e-02
8.362066458393188628e-02
9.774801026508531110e-02
1.383180687934492392e-01
9.886296687142090422e-02
6.470086275906374029e-02
1.351095405233442015e-02
3.869823373861398103e-02
3.225388253844609088e-02
5.382377334615968956e-02
4.554554326380906570e-02
4.917463013638023045e-02
1.021957096212728205e-01
1.062637039934965777e-01
6.129724107355950802e-02
4.786644646591193403e-03
7.961640065955249979e-02
2.838773301642155689e-02
4.388294309744320693e-02
1.098860601834863726e-01
2.883672302883386745e-02
8.033734576410198058e-02
1.007286933169958959e-01
6.294133520212447097e-02
2.738072669332130768e-02
6.352098536792678829e-02
4.095087787365391668e-02
1.048229544674766402e-02
1.218840676811770440e-01
9.769769420055041120e-02
4.840103367853136607e-02
1.078381279234216367e-01
5.513450808946730730e-02
9.995567894199072767e-02
1.095147578719751769e-01
8.496943029648454382e-02
9.186672597967071585e-02
8.543317319685590772e-02
9.679745186698793247e-02
1.245374040192028312e-02
6.133601337856668667e-02
1.034019138933168908e-01
1.228298880577428642e-01
3.741074410188832688e-02
6.560577497954421522e-02
1.103373776229367442e-01
9.481471651604109208e-02
7.684531993856386078e-02
9.307272291639152872e-02
4.047853440433023947e-02
4.222675959295506265e-02
5.416305305674155857e-02
1.000810522614509340e-01
8.648292580629343695e-02
6.933486486561664386e-02
8.799452876107809185e-02
1.277648210238100934e-01
1.582754034602665560e-01
5.904222364593973704e-02
4.950807530049639027e-02
1.100446497767332832e-01
9.554014309561389973e-02
1.381026163750869729e-01
9.565741759951530698e-02
5.820558182152097554e-02
5.705828038878168335e-02
1.155208789890164178e-01
1.080092258676717126e-01
1.245547570381679015e-03
3.163707956993854625e-02
8.346731496634279823e-02
6.408828001430266763e-02
1.057258071288752072e-01
7.355689308884344468e-02
1.890711494098385598e-02
8.735780425434794272e-02
5.980675314071698390e-02
3.784208065141250743e-02
1.012742608291859747e-01
1.440098660270833497e-01
1.115680177383985283e-01
1.095762284731235103e-01
5.292370656826029390e-02
1.291966975939182194e-01
1.070339121859807952e-01
9.240729498711756917e-02
7.307382432094973457e-02
7.952945101030979569e-02
4.276718662617047528e-02
5.837654886505490304e-02
1.489290304038473900e-01
9.841763255128888055e-02
8.349875777456924886e-02
1.443618237877317689e-01
7.552416130038012987e-02
3.691376683328913277e-02
1.050010397309507348e-01
4.338900110208041699e-02
8.522917309702915389e-02
9.804955209788136783e-02
3.466570856923190114e-02
1.027494887940284957e-01
1.109701917280783434e-01
8.526444201682401025e-02
1.232247099315144784e-01
9.527191998845885301e-02
6.804748905013607851e-02
1.445502969231967916e-01
7.643489073938519729e-02
1.136925427991585524e-01
7.765339110864176442e-02
1.023217503016031621e-01
9.454741095598087619e-02
1.188832289307402146e-01
7.884477638927729626e-02
6.361463490871861748e-02
8.453393608979774265e-02
7.749064632516797224e-02
7.635875313807785614e-02
1.027437970185196975e-01
9.038060488845027496e-02
4.976051808616967914e-02
1.280510713088981456e-01
9.844751954827661578e-02
1.360243179024399895e-01
1.158053356199005568e-02
4.482830168627940925e-02
9.044466692756833459e-02
9.450540115037274480e-02
1.316260224840576643e-01
7.631340192097521569e-02
1.200906823920204897e-01
1.056824913920236808e-01
6.799393984152043990e-02
3.345546346050187747e-02
2.933677110526057216e-02
7.088283685559294833e-02
4.085759863441078277e-02
7.366689145119377502e-02
8.921405426669626326e-02
9.975843521775731859e-02
8.533747006386464828e-02
9.461938900589411672e-02
6.607571904045878020e-02
7.301005635197237165e-02
1.122750687851563761e-01
1.110180755541262942e-01
6.180722696189246829e-02
4.500333737907703108e-02
8.687128105718058824e-02
7.497291437586635354e-02
2.556430297815457872e-02
9.456075249676726413e-02
3.607914900996659485e-02
1.204237831761384020e-01
1.177452552313399958e-01
1.354026297087708441e-01
9.585278781025713402e-02
3.326421697462026567e-02
7.891494337179737195e-02
3.815951100962974851e-02
1.314264312115999978e-01
6.396057726425613543e-02
7.899094593372261996e-02
1.030736214268205692e-01
4.508016105259411710e-02
1.389873337460529323e-01
1.024125533310477898e-01
8.417592921232802672e-02
6.081445156808818614e-02
2.362507133384862679e-02
1.442370315490204835e-01
6.783437211390644372e-02
5.548118297580082597e-02
1.002840622613973137e-01
4.717648196039271602e-02
9.496423994463476514e-02
9.938227102604735297e-02
7.531782292849678595e-02
2.550398140140704498e-02
6.727986168576850778e-02
4.526206243963863673e-02
7.289526406558397009e-02
3.950700042204673135e-02
6.624661188838106007e-02
8.823913780078698754e-02
9.040527743156488716e-02
5.743387325046068331e-02
1.217805546490080409e-01
7.277907217825432817e-02
5.284872403876594155e-02
1.377669118433151041e-01
3.708658080698598591e-02
3.212539375152641957e-02
3.583393639252385743e-02
9.941734511595608226e-02
8.754012448953615855e-02
1.134460236627957419e-01
1.351742314543901216e-02
1.095765292089431325e-01
2.460888282879975311e-02
1.301531035386343238e-01
1.676946767718747941e-02
1.189782578432144605e-01
3.756168803496009317e-02
1.184008763865986164e-01
2.856930102455689305e-02
6.866965750865364204e-02
7.537263472396540931e-02
4.313910652940138035e-02
5.823928974966735561e-02
5.290235748943065280e-02
1.460924785627102096e-01
5.349230609331988989e-02
1.035752829712728307e-01
8.346438056477352430e-02
3.767491183635082730e-02
3.069993840190159140e-02
7.023561867369378098e-02
1.130171560382953605e-01
1.093682550471132553e-01
5.161475538085488063e-02
3.284892492509276091e-02
1.629471279191746225e-01
1.336955710763636229e-01
1.310281484430038390e-01
1.312476642369111712e-01
8.621560956846058277e-02
7.614305157338351060e-02
6.786419794198984834e-02
9.683310368917337485e-02
5.915415737850799466e-02
7.777216938049689998e-02
1.106469889203999107e-01
7.100750483602637220e-02
9.845749677974040270e-02
8.218497540646874100e-02
3.470541196145071616e-02
8.699344117698254442e-02
6.830906003896929091e-02
1.201676887144624978e-01
1.684261609870971871e-02
1.025702994303234056e-01
4.712788616167593730e-02
7.180641899298725872e-02
8.647518259525205364e-02
1.038822153819984190e-01
1.024548949817311594e-01
1.301366406169821577e-01
4.805203411649350276e-02
7.605149694209931144e-02
7.238574411612357096e-02
2.711598719394043080e-02
7.153640901737789992e-02
1.165240936277777140e-01
3.629536644911687815e-02
5.050918314341802662e-02
4.926015992693334039e-02
9.286675317046974576e-02
8.043162257801395043e-02
6.850701171044205895e-02
5.691939634096973566e-02
1.316469667120742371e-01
7.552517926133210657e-02
1.009608517530281024e-01
9.602201233291021709e-02
1.242959340469444313e-01
3.614694110077582706e-02
1.083416028088143024e-01
4.750195213638597203e-02
7.877689672728635517e-02
7.645973451486293149e-02
4.704642629537823806e-02
7.475689050457637319e-02
6.554512397448619687e-02
-1.317265250809315780e-03
4.555195436641194112e-02
1.233284402963000792e-01
7.073059125247707635e-02
6.385220978598808717e-02
9.849452639580776048e-02
6.262526041082716599e-02
3.796883530556038194e-02
1.111357082722328610e-01
1.063255721231279871e-01
3.403743387595694475e-02
2.573355957977591091e-02
1.885398608282469121e-02
7.729848835045642630e-02
9.557120771425829664e-02
3.329564969955352283e-02
7.603224480378012462e-02
1.416044980497200775e-02
3.655440696521265742e-02
1.283528462524492486e-01
4.879169386569556788e-02
8.579235953806274573e-02
6.328025121123699581e-02
1.000719172838672039e-01
6.690170382934067239e-02
1.001361759478932301e-01
4.308198290296039179e-02
2.144000786041466711e-02
8.861919178884904158e-02
8.555758644528917156e-02
7.877564841500434012e-02
1.124690275308936754e-01
1.122730581679393103e-01
5.833046182363250953e-02
1.760654678881633933e-02
4.674995268259098807e-02
1.428539498589439793e-01
5.911453687601309070e-02
9.512578325910009402e-02
1.182677194159799383e-01
8.599768247309516611e-02
4.518105330322039898e-02
4.638007583372030090e-02
1.370638378136034286e-01
6.843929509569252057e-02
8.923990455706393155e-02
6.451321266790195630e-02
1.292382806586627741e-01
7.673833592686346572e-02
4.147351866532417858e-02
7.686217293616388890e-02
8.711905920576895612e-02
4.624811995450531926e-02
1.272391225021242689e-01
1.307703789646998405e-01
5.996951748724232978e-02
9.365766096913831495e-02
9.032636384352471515e-02
6.834545472068812022e-02
7.695935412521787145e-02
7.754382873843830570e-02
9.099387067836621490e-02
2.755623316228813721e-02
3.596960370030242299e-02
5.903031327252122873e-02
5.903383431236915169e-02
1.234107396831210651e-01
1.116874675230766500e-01
5.980436377558279865e-02
8.547558790056926370e-02
1.298931432611489523e-01
5.613869256742294589e-02
7.334188972070510015e-02
4.586267260611834318e-02
8.131460829647355060e-02
9.614222463849907141e-02
1.115320342604731035e-01
7.340375822640098080e-02
1.125791191205657571e-01
4.237072391936785865e-02
4.006876983175532841e-02
1.151151466038413951e-01
5.505970805391774414e-02
7.917790079257223945e-02
1.103795488644520317e-01
1.985049394340277981e-02
1.806414538031627867e-02
5.728441798454290274e-02
9.799954458516121902e-02
3.741552460921127032e-02
4.938141800911102081e-02
1.019395417351825206e-01
6.166240447618057119e-02
1.132595546565325906e-01
1.042938572276298631e-01
5.860843481936361607e-03
8.332783318576063303e-02
3.701526843886479567e-02
6.964137207852584555e-02
7.905502011374587745e-02
1.055927316734594085e-01
1.275963129371395291e-02
8.336040995632057471e-02
1.182364830161110325e-01
7.103317066561222470e-02
1.096538868568443514e-01
4.358898020961078645e-02
1.951834866028695492e-02
-4.447294344172801894e-01
-6.791891203645381569e-01
-9.971399753706539082e-02
-7.134391238424060422e-01
7.156617074477391593e-01
1.850097777908570329e-01
-4.886304032402558062e-01
2.427937730926213455e-01
-2.111877144318639044e-01
8.689747456752726362e-02
-6.107131289585330247e-01
-3.065062136894496914e-01
-3.086347242104486854e-02
6.771456194639383641e-01
-7.317226283225486405e-01
-7.003563419902425480e-01
1.123912506083557972e+00
3.618343558116778325e-01
8.723478832511785130e-01
-8.129284867558689287e-01
5.286532778565966595e-01
-2.112235488453841348e-01
9.244505611955016189e-01
1.895258193042047845e-01
8.903209522943179577e-01
5.525344021206479717e-02
-8.706416827842156092e-01
-5.456373589598099982e-02
6.976534671833399814e-01
7.340102267002298619e-01
1.069381016380162919e+00
6.549351871924715685e-01
1.764189540887958207e-01
2.088883924024392269e-01
4.781306846447238024e-01
8.332456121171291641e-02
1.344710440731809453e-01
2.099301143611593395e-02
1.369370885467661447e-01
3.810145954871069218e-02
-5.483365768782937355e-01
-7.439107970921710056e-01
6.000358044226064003e-01
4.217170346752228127e-01
6.249688000930534448e-01
7.514348868445359653e-01
-8.467376409933515813e-01
-5.047030896907113151e-01
-4.564460806194392539e-01
8.919879551604918966e-01
6.231728441284308806e-01
-5.460585174522679663e-01
-2.077681678001621068e-01
-2.070349520627872142e-01
4.152220923250732887e-01
3.833592795578784629e-01
-1.530940133215158427e-01
-5.546529896988035002e-01
-4.626252729718135503e-01
8.917413749080597141e-01
9.865361410227373451e-01
-7.886837818908104536e-01
-3.419070694672290966e-02
1.318457027295770467e-02
8.720430100417826402e-01
-3.064911495289587839e-02
3.095522924040896573e-01
7.519884237578271513e-01
6.450142040355565376e-01
5.927926061081491282e-02
-3.442198587543465749e-01
8.722167866987071694e-01
4.622431727079733266e-01
7.507071713804662760e-01
6.230987488359704951e-01
-8.435151795818596199e-01
-4.243536650950586742e-01
-6.652249917017445391e-01
-8.104477099967459797e-01
-5.154304274485226323e-01
2.784715349967741838e-01
3.677539578718881375e-01
1.027644267402672007e+00
7.458143981855832605e-01
-1.800780846101115718e-01
-4.361753217111135617e-01
6.148567114985353799e-01
1.046860733900313978e+00
7.604599090724539767e-01
-7.641290001309742896e-01
2.534167558764683359e-01
3.164899704895421939e-01
4.446738072967103550e-01
-2.174266952998848978e-01
-7.771716597743671961e-01
8.129596207008383812e-01
-9.174051578874278245e-01
3.439712692213874878e-01
-5.135045476393869102e-01
8.381249968516043536e-01
-5.150043848145855474e-01
-4.157094880815531690e-01
-3.683892096971493890e-01
-2.873707422354261354e-01
7.328123314915244713e-01
-8.159870524276671144e-01
7.585113777503392773e-01
-7.320203783414963583e-01
-6.560432350259093326e-01
-4.829107996613119513e-01
-4.991593160471833879e-01
-4.806459713973860182e-01
-2.932360730580746422e-01
-2.177367034294618864e-01
9.693399759579868213e-01
6.832890864240499518e-01
2.674757461402146319e-01
8.650596875081895121e-02
3.065491308463998421e-01
1.038149084171887448e+00
2.952088835367270292e-01
-6.056828602842243003e-02
-1.811391774594139914e-01
-1.185947672453249169e-01
-5.186438388615077777e-01
-6.800749716962714020e-01
7.281116607512578831e-01
-1.520830404664074154e-01
-8.216787820798223674e-01
3.134301419468312755e-01
-3.909266626606475170e-01
7.293224545462819730e-01
-2.128333434090077803e-01
8.945928539261343015e-01
5.908529684069356858e-01
-1.019082577774877763e+00
-9.760343928381587375e-02
4.940371379441427235e-01
-6.494792470209836965e-01
-3.210155381164874755e-01
1.019386522894169644e+00
7.425100993948227091e-01
-8.031739421365430287e-01
-8.802929587354870744e-01
-4.309521719118958316e-02
3.771024759211175637e-01
-2.368657768258238816e-01
5.943579392070738043e-01
-4.589239060476736909e-01
1.962973303032792827e-01
4.989310082349879827e-01
1.990685313498444242e-01
-4.809621257826696139e-01
8.915461074946228193e-01
-4.941189969254762282e-01
8.705156556456471462e-01
3.285641001023522634e-01
-4.585341176672476093e-01
1.993186578648208362e-01
-2.511638367245812020e-01
4.705632238026472014e-01
-5.502419614468180287e-01
6.047349156346044641e-01
-5.066775097595981325e-01
9.500395028359718275e-01
1.599260030927374121e-01
4.510956529498278411e-01
6.831306343648878565e-01
-4.958044462918976270e-01
9.553062776249449106e-02
8.686875115769937539e-01
6.612481733317593369e-01
8.512106519883235745e-01
1.903201616938874352e-01
4.077164733655385120e-01
6.247583126506626172e-01
-8.578815863349445459e-02
-7.608123697797130047e-01
2.995278777792931280e-01
-6.563506128813078044e-01
4.283023931756911873e-01
-5.818762610664145463e-01
-8.691642636925016596e-01
-6.251184114892408550e-01
2.705207777419985637e-01
-2.965821271114867930e-01
9.905203485269238328e-01
8.661417532721514823e-01
3.310120120122961307e-01
-7.096149617438787249e-01
-5.487458462823773253e-01
7.896649185247996972e-01
1.265819259600874935e-01
-9.310373289517874518e-02
6.654299250891473338e-01
7.509943847763631553e-01
9.388596777864030574e-02
4.091878003619379145e-01
6.153359956093665817e-01
5.435353413567661773e-01
-4.094207933051973169e-01
-6.433813505671873711e-01
4.104836510499386693e-01
7.496418406567942339e-02
-4.662798368268463722e-01
4.576138568949257301e-01
9.511995595319530650e-02
5.885926814725217504e-01
-5.634456598484796075e-01
-3.832889387755812893e-01
3.489326480955841081e-01
2.587725531525298939e-01
2.140396152537343277e-01
1.894481577575519715e-01
3.548822042629762308e-01
-6.472885728592497889e-01
8.074566082065376404e-01
7.076703517034910185e-01
-4.337669602953220793e-01
6.288244602317922816e-01
-9.075727475153601009e-01
3.191017827942259355e-02
-8.912486109979919080e-01
4.120048650992891304e-01
5.754649242567757561e-01
-6.967024889732775783e-01
3.017726608582226300e-01
-4.984547976293014493e-01
-1.541332108672417434e-01
-2.006082279267437096e-01
3.914172929368550657e-01
2.822042715881035724e-01
-7.606113272305869977e-01
3.291002541386663927e-01
-8.255963564327566395e-01
-1.190003788516196259e-01
-7.334716550756678055e-01
2.933284900201705292e-01
7.864988775865201509e-01
8.476047552678961372e-02
1.056658313524897252e+00
-2.197791282948226288e-02
-6.485128293568696023e-01
9.707968612227928507e-01
8.617920501520981436e-01
-9.645945409652019464e-02
9.301616226123217146e-01
-3.351506964225987040e-01
-1.512411690336437076e-01
7.934624396048274297e-01
2.128436349667021388e-01
4.624518483573409333e-01
2.786490145652834594e-01
-9.287740548583001132e-02
-4.771773098539695002e-01
2.798942458331859506e-01
6.293809830443657383e-01
-2.928470856718957127e-01
9.459792817855710023e-01
-6.245755489522516468e-01
6.240130725820549618e-01
-5.900315024164680677e-01
-4.844414175617250962e-01
9.397093109882444228e-02
-7.911044790702435048e-01
-4.561325625673355866e-01
9.818000988094423009e-01
6.300308756907705421e-01
3.438203227998112149e-02
6.813833517227332326e-01
-2.710987067236892978e-01
-5.047381651124706048e-01
-1.616190287335358272e-02
3.139514674115495563e-01
-7.476745164761794404e-02
5.209736073355992758e-01
9.862342746571588492e-01
9.131061023818878297e-01
-8.286365794332679613e-01
4.310766977565400060e-01
3.880394477174612389e-01
-7.265579274639357710e-01
-7.307424215400175616e-01
-3.426783286461483891e-01
-6.293607897810230556e-01
3.382079142122718096e-01
6.978514669855025998e-01
-3.525067917282497243e-01
8.797081600107332644e-01
5.208791663093933488e-01
1.019936372143846137e+00
-7.893274171574198306e-01
-5.167272610229672880e-01
-3.346631589248598715e-01
6.395379022276747039e-01
-4.142516381079838078e-02
1.985641692358743882e-01
-7.378212396399956852e-01
4.732308456235110317e-01
-5.295794904968588179e-01
7.634875353925614228e-01
-6.523185497198373817e-01
7.395540375925352405e-01
4.882862899178684324e-01
-1.042215228136396388e-02
-8.498834403989885544e-01
2.175457475214926939e-01
3.863591067638966758e-01
1.497181292226657801e-01
-9.052780028415359226e-01
-3.770430065221579835e-02
-2.275967548698450971e-01
6.643120658871802808e-01
7.774059220233954237e-01
6.960468179170998804e-01
6.424060777813297429e-01
6.634619202783383907e-01
-4.859069535284691321e-01
6.724894111759693871e-03
-1.345475455147416011e-01
8.388858612085390298e-01
-5.638607728870593805e-01
-2.741647193535337590e-01
-8.024654344986173471e-02
-6.350321739132501475e-02
-7.108865696006803070e-01
-5.668967062447138883e-02
-2.187205010319520637e-02
-6.034611458334867562e-01
4.012797330450824651e-01
-6.439095232274928415e-01
8.908852592855420749e-01
-5.015077514039050222e-01
-5.140984546688412982e-01
8.682667741790845994e-01
9.054573891800363206e-02
-1.249758075077378461e-02
1.159018540620883053e+00
3.476994250390873509e-01
8.353403409512047961e-01
-6.390230882063933082e-01
6.206449940518439234e-01
4.866068136726237059e-02
-6.167146606224881422e-01
1.258668994979568467e-01
1.670708323730759892e-01
-6.501195388155285304e-01
-3.847364814977291547e-01
-5.373131964565415197e-01
-4.601294865057011796e-01
-4.230503844668381253e-01
2.750624684792483121e-01
-7.876453823086895234e-01
-3.461029439743931735e-01
8.318591511517855475e-01
-4.455835018920256685e-01
-6.151014815117390455e-01
-3.814458449853108668e-01
9.586443153918942917e-02
-3.690326193441419989e-01
5.554137474378210149e-01
3.851746858561278519e-01
-1.487381301913466014e-01
-5.383341121275881935e-01
2.183271085570909209e-01
7.530331106913706884e-02
5.539009859705903427e-01
8.205244916666817323e-01
5.124585202645889348e-01
6.747292207540103726e-02
-7.173480176270907727e-01
-6.354479202158875850e-01
-7.585791231881109375e-01
-4.389452757299979746e-01
3.660002472790520045e-01
3.106318939649607147e-01
6.977483484309815465e-01
4.985011022977678397e-01
2.856826165414183549e-01
-3.465296744972594378e-02
3.215801539171631029e-02
-5.764009664533003008e-01
9.126584679858780191e-01
5.745109219222289676e-01
9.027028802563507037e-01
-6.307229524425564393e-02
1.060019635899055457e+00
1.029996124559482640e+00
1.028807139684816130e-01
-3.901913805775302224e-01
-4.115588316639716415e-02
-7.128502325529437744e-01
-4.344897999277174683e-01
4.417119330969597746e-01
3.981985962700860249e-01
7.352852119151798149e-01
-7.594537103429662706e-01
2.036488654718140445e-01
6.903197433830020602e-01
-3.668024106333384049e-01
-2.459510543218188794e-01
1.471536115070057327e-01
3.543766496418379042e-01
-7.544215136953212886e-01
-1.291960106184188994e-01
6.204473269503476551e-01
-1.554329805134073705e-01
3.217194065009221227e-02
-7.957889463246180239e-02
-3.709427119179800059e-01
4.074702540314334431e-02
-4.753634418717818666e-01
2.562330597711905966e-01
-5.106429458351190442e-01
8.556980050900756529e-01
5.590137772710639386e-01
-2.825343516961147383e-01
-9.366519595050959435e-02
1.103739224734902880e-01
3.371375851301987026e-01
3.991887456904431031e-01
-6.485987385260750804e-01
7.248475953161653829e-01
2.841435484967433922e-01
6.457729780911592998e-01
1.250448390252164033e-01
-3.117331471063201909e-02
-5.198220876289870729e-01
1.007330530583944395e+00
9.672544885394481762e-01
4.344293213361181683e-01
7.155856637983644408e-02
5.108088284983696159e-01
-2.911173492840831711e-01
-7.780785200699683601e-01
2.209045911725618649e-01
-3.159475098955242811e-01
5.930019022838829423e-01
-6.184855858073723400e-01
4.227771711531040366e-01
9.112039786134217279e-01
5.305286089062305477e-01
-6.831947586503653302e-02
6.250404487123151220e-01
-7.522260611211842862e-01
-5.289469183041533018e-01
8.437002789882962484e-01
-4.253675683514603900e-01
-5.413073463688692355e-01
2.291025702574362999e-01
-6.330734436840873558e-01
-5.539870425662588582e-01
8.886220003706377657e-01
9.241314851471303937e-01
7.926337802940327526e-01
-1.510313074202235539e-01
-2.559629618045880517e-02
1.906573006268282300e-01
-6.850734376638079048e-03
4.372102420806336931e-02
-8.193836833202323700e-01
1.048871034955034531e+00
7.700429362380459275e-02
-2.697770255765096215e-01
-7.245620120527939134e-01
-8.029222240832308843e-01
-3.168687778650116083e-01
-3.462625245773914839e-02
1.070067730031738051e+00
7.178410560326822232e-01
4.798402786353797578e-01
9.808280246783659395e-01
-1.232183570438620257e-01
9.266830176912416173e-01
5.190740064975671864e-01
7.718986716649886004e-01
2.105451998401742797e-01
3.394693560588408765e-01
2.883450101402200150e-01
1.347699514549002830e-01
1.091320113847070061e+00
8.184918001414011046e-01
1.067539477969703166e+00
1.585701160035429269e-01
-7.962304496810327370e-01
5.727360694236185434e-01
3.071328220418508836e-01
4.230637186043576525e-01
3.626994997836799350e-01
-4.068915311141935720e-01
4.888643394071208736e-01
8.170158821908269919e-01
8.359205425209184082e-01
-2.709623247125658718e-01
-4.742691693857963853e-01
-1.707748875263156996e-02
3.693818964014704276e-02
-3.145211497096971343e-01
3.877803833174410242e-01
-3.283346947057785847e-01
1.425841792908491557e-01
6.278649793471505203e-02
4.056933395967349948e-02
5.011149963606234548e-02
5.538849982858805310e-02
9.532678029070953962e-02
1.555689579834205749e-01
1.145695086320229067e-01
5.075878424289043123e-02
1.320338886210934981e-01
7.908038363817740390e-02
1.070434317375287964e-01
1.211742626656442529e-01
2.192425063311400843e-02
9.096490128597263525e-02
8.386872404309157758e-02
6.847750344372897924e-02
6.220571805001914867e-02
5.375632764939605041e-02
7.373383658284296538e-02
1.162814803908642780e-01
6.819586188112358727e-02
4.484303682827003867e-02
1.332325761410316223e-01
9.686303122895227602e-02
9.540257230960744184e-02
2.238462594689500165e-02
1.169019670886190937e-01
7.164015440491264264e-02
8.147008135777111804e-02
4.993122205242779554e-02
1.166586885156173509e-01
1.115094966122973930e-01
1.160007954725015139e-01
3.820622131327847809e-02
1.115672462866773573e-01
1.285945900889561289e-01
1.155785228580714918e-01
1.153468336625125823e-01
1.058986334609808011e-01
4.099118186593227187e-02
2.645506564205362884e-02
7.640458176332716456e-02
9.969053672456763826e-02
1.090927021378548245e-01
1.296180637380862921e-01
1.237919453944815312e-01
5.336407419729938262e-02
1.184178170204072955e-01
7.883590842718538050e-02
6.300189706403400147e-02
1.141931162620791057e-01
6.854370651751119647e-02
1.026191340973823390e-01
3.593130187964968525e-02
5.169040082225433153e-02
6.747975957403323788e-02
6.695669114793338650e-02
1.167506867311594310e-01
6.564298523738955338e-02
8.789756482941760152e-02
5.043598671234279102e-02
7.676457574135914230e-02
2.353860790597435068e-02
7.517585415895559897e-02
8.348154362188328625e-02
2.778475676172042705e-02
5.018675191639591915e-02
8.623206614580704310e-02
8.735764967925019331e-02
1.065125768816014423e-01
1.088350648696416872e-01
8.503491966830700743e-02
9.171213053872294407e-02
7.109614213424553242e-02
2.569118885246753081e-02
8.920879180265248176e-02
7.581406721797090409e-02
2.943269508426035047e-02
9.136792524021863926e-02
8.166531068886825895e-02
1.049746507557971359e-01
4.373936645793730094e-02
1.122391089236005890e-01
1.582199641265152890e-01
9.192029981044254339e-02
1.278678408941160971e-01
8.851767848904414093e-02
1.368184249348250725e-01
6.372406417882166274e-02
1.286077767610492029e-01
1.268448551227387977e-01
9.405322070108246280e-02
8.121837399636100407e-02
7.260642683748834425e-02
8.448958884165708172e-02
8.400531697233731832e-02
8.959717065422048710e-02
6.030224116688392977e-02
9.161472620143795709e-02
6.562960879166764017e-02
4.093660530791095459e-02
9.406577970265736499e-02
3.714097851817235729e-02
1.209403676854915871e-01
7.372475152913500474e-02
1.266991512963338284e-01
4.803509908871202161e-02
2.823481846867823691e-02
6.341644494982628943e-02
1.189844804881341478e-01
1.474914936300361357e-01
1.187135807964089101e-01
1.257036925946900252e-01
3.402125231282533691e-02
6.798276920586948657e-02
1.163823097507090121e-01
8.215883301088940105e-02
1.026245113324372599e-01
1.112461144777151523e-01
9.524085888909852859e-02
1.154895276757134243e-01
1.035686331495906387e-01
3.984929934875942187e-02
9.712527051443251014e-02
6.407070204114263812e-02
1.112555308378154195e-01
8.331839674086682912e-02
6.580472429712860838e-02
8.113616678375701330e-02
5.101009474169504454e-02
8.760086283164375542e-02
4.728436214162588108e-02
1.014427859398711468e-01
2.044709343847806587e-03
4.787344292177855148e-02
7.729389165094696645e-02
9.344919518252367552e-02
1.479025971965601191e-02
1.093611812414104489e-01
1.045851281795638771e-01
5.358770546711040528e-02
5.069245396056707570e-02
9.387334353391482700e-02
4.825477598188009781e-02
6.352114217549845177e-02
1.007310983499766222e-01
2.143441471221288475e-02
5.845713804604336233e-02
6.056249390860947435e-02
1.039997774528707009e-01
6.754514850430354267e-02
7.171485575068459184e-02
8.109972928203369735e-02
9.455546616207576027e-02
1.264769328156169215e-01
9.370017786632048318e-02
9.202340084272887799e-02
9.032477238541439246e-02
8.718173087484831774e-02
1.157731412384349207e-01
1.060584726571677655e-01
7.675639466943147415e-02
6.274541697786611971e-02
7.642041106399197203e-02
9.350334995099107704e-02
6.840056954740622586e-02
4.070773571836026200e-02
1.643725334863263901e-02
9.157311981694449265e-02
1.201403703674814166e-01
7.900258164345819178e-02
1.017538452423252388e-01
4.696008961085941513e-02
7.394165985887053705e-02
9.091489698135205022e-02
3.349223008498639770e-02
6.092634987626659171e-02
3.274144442249106446e-02
2.952252649642789217e-02
7.480215842602155885e-02
6.226867072029783345e-02
1.209968625948383975e-01
2.272536180225273594e-02
1.190883350256444623e-01
1.132339953824115508e-01
9.265912438196068079e-02
1.033509141758287841e-01
1.368572893524678813e-01
5.867127006076949119e-02
5.313082903929167156e-02
9.171094888520996136e-02
8.048318325935316375e-02
3.050438010652748930e-02
9.336711252911814030e-02
8.437162090688148097e-02
1.300008318867383883e-01
2.998479074219323470e-02
3.925056098761082329e-02
6.726551466374913746e-02
6.039157052012759930e-02
9.847430920930130838e-02
3.994059741200883806e-02
8.733293240702355575e-02
8.790858024783512747e-02
8.381830201339338093e-02
6.999758345670169246e-02
6.342823022014013046e-02
5.848483186556720920e-02
8.843607085028043491e-02
1.088560678003485938e-01
1.318729241538131036e-01
5.973692887851592137e-02
1.019900067892473422e-01
9.513253447158412368e-02
1.405553793677855323e-01
5.620698382082436190e-02
5.648064500685772565e-02
7.634530691816182602e-02
1.041075060086275456e-01
1.334983355588800491e-01
4.483110703333108293e-02
6.678641701209711568e-02
1.233577554150026012e-01
1.273530756482764148e-01
1.017690569401956402e-01
7.810719100686175365e-02
1.053115077170515557e-01
8.400904277858280145e-02
1.287349862552941149e-01
9.135285831008975455e-02
6.358748389177412697e-02
7.607426014708733308e-02
1.320361271644442946e-01
9.214444627351282835e-02
2.841278478825064874e-02
1.142525988801491726e-01
9.448559211248021283e-02
1.492291129058053445e-01
8.959341496165880436e-02
8.827624236587225393e-02
1.665388742395655375e-01
6.339800231807832254e-02
7.532893520682010235e-02
3.728849280941461120e-02
5.399546212006287732e-02
8.291678373318225881e-02
1.219040532793214948e-01
7.893179248206172449e-02
5.028635710441174689e-02
4.191801714772157295e-02
5.631400073805938739e-02
9.611079772895191053e-02
6.972649521899314251e-02
8.129308950401219203e-02
1.075476157099309188e-01
7.906248594439534150e-02
1.154820637831556196e-01
6.728257238743126645e-02
9.669472701498331435e-02
8.580295622738298711e-02
1.257751285586690693e-01
1.313663816778589677e-01
7.758234857867567225e-02
5.676383812104696114e-02
8.855381125207587023e-02
5.310153922074243443e-02
1.034946306799050114e-01
1.367394045666999458e-01
1.044866798068756625e-01
4.495489477711962778e-02
9.566855115413065713e-02
8.469313341958482899e-02
5.118024215025768903e-02
1.514997393693338912e-01
2.717418970762413080e-02
1.534696116167543478e-01
8.958771047428004675e-02
8.721135697277300480e-02
6.213157291374698209e-03
8.098468132576215617e-02
1.069772804809058370e-01
8.922137215836392632e-02
3.868645444927903965e-02
1.085180274218804086e-01
7.263747617756756425e-02
1.032805806024558459e-01
7.324324623434219639e-02
2.472621543672442329e-02
3.776902093228609592e-02
1.294189621171951410e-01
1.106581429411100936e-01
8.046661463254548008e-02
1.323910822255041086e-01
4.092931384712218679e-02
7.347682997548116157e-02
1.280941345888698957e-01
-1.871565957480471332e-02
5.976747789649243525e-02
-1.408796411203402758e-02
6.724195396386448143e-02
1.142836399030560113e-01
1.284312104262702592e-01
6.353222472714398217e-02
1.094540341298463615e-01
6.023656520479082899e-02
1.065796528037503965e-01
7.071044279721513948e-02
5.750053085644120376e-02
1.053813606943370812e-01
3.563592063080076727e-02
7.041719078317465463e-02
8.195109235966815953e-02
9.813707621209341592e-02
6.759233572996652117e-02
7.995328623176224669e-02
9.410832017180360831e-02
1.289035371601224833e-01
5.331718124378143076e-02
7.488406579586620593e-02
8.027657879686453390e-02
8.527681068006720544e-02
3.119304654424651102e-02
1.212409263836407847e-01
1.159332379821407105e-01
1.243317501612840603e-01
5.642800082888960872e-02
3.845851366905536639e-02
4.814004433681886436e-02
4.171441629722965477e-02
8.250859916630894075e-02
6.912275871475576094e-02
8.171825804660509673e-02
9.487997578680364141e-02
2.236012507797920448e-02
7.651016978081534581e-02
1.112035155073121812e-01
1.064423677229857645e-01
1.067075858531536664e-01
6.989333046485218803e-02
1.103113221121815868e-01
5.165072677425503606e-02
4.269030614219779252e-02
3.029826174066017896e-02
7.614714416336205993e-02
1.116561529671299680e-01
6.714706317540476699e-02
9.297386493318189615e-02
1.358242096938213350e-01
6.223484188839217834e-02
8.267492065278680968e-02
7.797644766917123660e-02
1.565133752369677611e-01
9.934727801016529636e-02
7.950740756860674718e-02
5.727499168061113421e-02
8.803646812301287039e-02
2.971608241393727465e-02
5.813529167861818808e-02
6.865147091712123228e-02
1.027327579762678800e-01
1.105565256443898359e-01
5.608317545279198346e-02
4.376993619715330297e-02
1.464772736670358899e-01
9.834161446682536389e-02
5.314763084843945884e-02
3.362227364211105296e-02
2.142014562650031151e-02
1.364554628552687443e-01
9.451083918765193492e-02
6.096572366204348892e-02
6.124661078882551180e-02
7.366409610412044673e-02
5.159857447261601698e-02
2.530149617167859119e-02
1.858309523123957696e-02
1.428321081070985377e-01
2.574456575478669199e-02
7.527684611003075676e-02
7.338809050314461235e-02
5.713782312658160362e-02
6.477219327467266530e-02
5.081998001626523986e-02
7.029102217509097805e-02
6.344705993951740841e-02
9.302095094147135035e-02
1.011142715692136401e-01
6.884757282125569811e-02
1.046074658515502159e-01
4.018801802057245937e-02
1.141006062056791892e-01
1.360815020790596408e-01
9.795891790747411620e-02
1.301846682982851222e-01
8.230503702729456694e-02
9.861941247742803118e-02
1.208730426510136458e-01
6.764908905778430070e-02
1.019806335894354599e-01
9.693387200689915217e-02
6.339267053302935495e-02
1.171483079371199443e-01
8.217386612161874104e-02
1.412141742324452831e-01
9.625699473032224562e-02
1.361030814616472073e-01
9.170443020823014491e-02
7.854864152723041448e-02
1.590101396717247956e-02
6.170965930253425463e-02
1.278759099957226530e-01
5.778473897215496285e-02
2.650322944282187260e-02
9.399618498478061468e-02
3.194256250795068225e-02
-7.115543926288252496e-01
-6.275403196733762012e-01
7.271330930248869340e-01
4.196590970502337425e-01
-9.875415404652670981e-01
-7.496107534423501750e-01
1.088063941167201065e+00
-2.995880930249688046e-01
9.134528879139108826e-01
4.973488723947158685e-01
-3.604010615243916082e-01
-3.579475369065112100e-01
-3.513811708557629809e-01
-1.982690665025928223e-01
9.036553358077901998e-02
1.558501343615492085e-01
-4.956379724837699507e-01
-1.049358736850741769e+00
-4.255613687505567233e-01
-1.617368790392056596e-02
-9.360366043584141815e-01
-5.763519304826941747e-01
-1.138231118188248459e-01
-5.188850905414965631e-02
7.272582315400270003e-01
-3.842841238193478448e-01
-4.074270377162203527e-02
3.877251961186682361e-01
6.128771186651531533e-01
2.913413538757597121e-01
-1.360880502591871044e-01
6.381500651259635060e-01
-2.578389928671328546e-01
6.881272882631992438e-01
4.150327469229577182e-01
-6.805661486472650568e-01
-5.511414413592915507e-01
-6.564512688821692171e-03
1.470059010705644098e-01
7.534045171756800219e-01
3.378490976518367384e-01
1.077907151572521371e+00
2.316158966237786831e-01
-5.413791598034065622e-01
6.593524459438436791e-01
1.479968245927865134e-02
-9.548944685088399387e-02
4.529560227293513153e-01
-4.767584104697881742e-01
-5.104730084916454524e-01
-1.221807859293535387e-01
1.181495717129018796e+00
-1.372629130164070010e-01
-4.980691547122020890e-02
5.251562715727333686e-01
4.579836400497432902e-01
4.553412629143357981e-01
7.872951760684552269e-01
5.600850331451675546e-01
1.857213914584044667e-01
8.421786613008239719e-01
-5.775843281713254340e-01
-1.557915690182653801e-01
-9.814463658351378905e-01
4.276319322249494959e-01
5.804609280163405272e-01
9.328306753558308628e-01
-6.047746999111034416e-01
-1.853558385735209479e-01
9.121169216763086451e-01
-9.914653490876118580e-01
8.367438449189462668e-01
-3.727633930976199939e-03
5.690536899322934383e-01
-4.773523964919256790e-01
3.543459357025677270e-01
-2.536131568221681176e-01
-2.605279696854767568e-02
6.461399773442905170e-02
-4.614312023856976253e-01
9.250170648351940805e-01
9.512026119240343802e-02
-7.682015648624277437e-01
6.641497910955198591e-01
2.118779932732855198e-01
3.410672873053987586e-01
7.210854103690984562e-01
1.318669854590260870e-01
3.606238788635267589e-01
-4.937119650906685586e-01
-1.649558807544166950e-01
-4.827522691914505337e-01
-3.477385962727841395e-01
-1.672109423681147899e-02
5.704021258201762423e-01
2.267399632036160573e-01
-7.256087519212450765e-01
-3.077452307774403151e-01
-5.905643441383469083e-01
1.696324413125311348e-01
-2.594310806399423297e-02
2.193050387485167840e-01
7.304510092910574404e-01
-3.504711943295193421e-01
3.986006270925251393e-01
1.896175394637626133e-01
-1.007792610906303316e-01
-7.402634510401824297e-01
5.227426036078641758e-01
3.235493083725465846e-01
5.018965318156501931e-01
6.653292708787941767e-02
6.400834977893062883e-01
-1.049416545738768580e-01
2.950542953896030940e-01
1.519745735757642713e-01
4.026555514821663628e-01
3.437592697856978186e-02
5.494594271634148930e-01
8.617658141240835956e-02
-3.679889427379241518e-01
3.295201750866610935e-01
-4.280138725226041996e-01
-5.890722729927119206e-01
2.365615235432930730e-01
6.893698267697493387e-01
-7.812843026638148503e-02
-5.403717173361868853e-03
-3.583580089549763814e-01
7.697500462118271880e-01
4.592198744149618705e-01
-3.938117069654320512e-01
5.787895981852232696e-02
9.774834859521888686e-02
5.161502000006801261e-01
5.208885771524929265e-01
-1.460754882437979851e-01
2.285704464835230376e-01
5.476004676652650449e-01
-1.410124248700253546e-02
1.410101912214437314e-01
2.615315589754353964e-01
5.556588323564205095e-02
-4.438488470020257037e-01
9.985512619629870190e-02
-1.345704466702070390e-01
8.145840581293254390e-01
-7.541518731277463417e-01
7.614121171773255980e-01
1.966489383664968005e-01
-3.510687333848842018e-01
-3.344262757365430994e-01
-3.360788327819591581e-01
-5.412343109395374441e-01
6.651511731796230231e-01
4.007117536380362388e-01
-9.406233704521620442e-01
4.974366195272487690e-01
1.268631707262376507e-01
-9.918222782401968640e-01
5.306418051891755860e-01
8.289663750305915624e-01
1.741790308300346646e-01
7.288057414802186218e-03
8.809722185311479326e-01
6.953085223130850423e-02
-2.342001734131213819e-01
-6.690983537963642869e-01
8.977054169129278227e-01
6.562870358572839846e-01
9.369463859623120561e-01
7.694306347237338251e-02
3.861704951264526842e-01
-4.266121883092474087e-01
-1.656799175883467146e-01
5.285607984054715436e-01
-1.545678941378719751e-01
-2.517529919147399875e-01
1.038139442372836008e-01
-9.023859367400322018e-01
3.032313084828370253e-01
4.728890098352703242e-01
3.213054685270839705e-01
5.862806292859021884e-01
5.062390155487094257e-01
4.855654418965769936e-02
3.234691147732225436e-01
8.614166141675824173e-01
9.548454352988476890e-01
-9.183854897251887417e-01
-7.110909576969560719e-01
-3.845878605076106377e-02
4.983019091803393419e-01
-3.185292231649684558e-01
-5.518087074676937265e-01
-6.853982707183384204e-02
-7.417963229524435764e-01
-3.177304162087551953e-01
6.855836407298805391e-01
-2.279531613751569485e-01
-2.840442537776521337e-01
-5.228003357647481586e-01
-2.777989773787375993e-02
-6.774575665968565197e-01
7.574571189979044661e-01
4.795379301122525417e-01
1.106777262636067238e-01
-5.866875057880831246e-02
6.220290579232207184e-01
-2.973263740862517879e-01
9.112479149229674169e-01
-1.610159914011835280e-01
6.438516909546146971e-01
-8.412685171216746083e-01
1.035960384085956809e+00
-6.773973814262072013e-01
7.384453214561534917e-01
2.595807173842827331e-01
-1.541725379624552805e-01
9.228769975378460222e-01
3.611490225135489118e-01
2.216916954441260634e-01
-5.815589729693472210e-01
-3.745237647520914814e-01
-5.637597395709587067e-01
-4.212594379346352724e-01
8.936585370251998173e-01
4.269420816168132959e-01
2.663687319643872620e-01
5.296145006244574738e-01
1.457351897112599826e-01
-3.261857475817995233e-01
8.184949339359439691e-01
-5.327094284951620073e-01
1.881649267841362938e-01
5.794017289422829231e-01
3.673449252882511340e-01
2.705709831255594389e-01
-3.607265943336906977e-03
-6.314270550709499830e-01
-5.667398042330015762e-02
1.650770551867625502e-01
-5.561581781426158111e-01
-6.098528047924208773e-01
-4.378120696953597957e-01
7.232183284627085040e-01
1.300656186969140871e+00
4.432455619278386494e-01
-5.641027279088206559e-01
-2.489919814858905511e-01
-6.687874487746340302e-01
5.151184606313506942e-01
-4.171082472260374541e-01
1.058153072765878777e+00
-9.082297761948823767e-02
-6.677587016951412879e-01
7.292052832730937517e-01
-8.604306183692747578e-03
-5.789693702090277228e-01
-2.226945629856622033e-01
-5.700053218153144918e-02
1.699099571974108380e-01
-7.587920721830274662e-01
-1.971735060821593055e-02
-6.954435444801618793e-01
-5.120535162633981646e-02
-6.798997780060031526e-02
2.896509790148606434e-01
8.515528569608684650e-01
5.330178159599747723e-01
-3.719992500717078099e-01
1.239544608484878463e+00
7.323459256851001520e-01
3.785761168023645262e-01
1.433740797563441693e-01
6.118739646727996973e-02
-7.622452121379300616e-01
-1.630192239673611820e-01
1.124102653044609879e+00
6.106102797479655564e-01
-7.851525463369465885e-02
7.816851780475760902e-01
4.363814360196360820e-01
1.882679932015873525e-01
1.636122090442910793e-01
-2.261680554752607542e-01
-6.217694152304199529e-01
6.619864177123924165e-01
7.515133330070815354e-02
-2.267192739969736137e-01
6.368497796677649037e-01
-2.099928561160342988e-01
-8.923573635953063743e-01
-1.979892623932427709e-01
-1.228096103736817379e-01
4.929305482667550864e-02
3.914250380760075920e-01
6.282110241308100917e-01
7.434391052631596220e-02
2.693232757064898397e-01
-1.822166409546467081e-01
2.664352206146683444e-01
-2.899174263480752689e-02
-4.567782294705445556e-02
8.143340497776750952e-01
9.049409074908112416e-01
-2.016282555799708553e-01
2.138825688409891068e-01
1.973241623694511893e-02
-5.597350290965807940e-01
-3.011891475824992614e-01
6.379116659793260258e-01
-5.778478299691413023e-01
7.404694404391101159e-01
-4.261001821738902851e-01
-3.733253909349766864e-01
-5.537650953414285926e-01
-3.906884817070689353e-01
7.698886969426677052e-01
-8.305198995378061388e-01
3.594743819188057077e-01
2.763366395909330753e-01
9.760834433980727920e-02
6.910551201681225386e-01
-6.214472070719518904e-01
6.548732233339004116e-01
-5.975946782391960976e-01
-3.222980477178817582e-03
-1.236816103046615989e-01
-3.676956840346946587e-01
-3.140480011386237447e-01
-5.730675239298496093e-01
3.321973109770927080e-01
-2.585391492627968080e-01
9.546453578325451161e-01
-1.957914824856579472e-01
3.845248817631535809e-02
-4.050896012445944216e-01
4.020026711405766950e-01
2.678708351275823629e-01
3.607000610479667579e-01
6.598892116416955611e-01
3.587565361869496927e-01
-3.816351050691940694e-01
-3.027017721715435927e-01
7.784029322458527744e-01
-2.518072620487504243e-01
5.465644783835826859e-01
-5.231022408475304308e-01
-3.979634589966788427e-01
-2.736056274351720830e-01
1.059953346904517479e+00
-1.981407364476993338e-02
-1.566063521035568895e-01
6.894966237395165898e-01
7.744273390467748541e-01
2.094300411934605088e-01
3.671787310185258835e-01
-1.013982620884802843e+00
-9.736751249936923536e-01
5.798328630004119244e-01
8.014497703945928919e-02
3.577896194922691175e-01
1.946880469259909541e-01
-6.420216281078328091e-02
-5.248662813718570908e-01
-7.922436965835749634e-02
1.212182751832154709e-02
-5.858971776717688540e-01
4.199325333875604804e-01
2.472233881439351300e-01
-5.536322050670146044e-01
2.371184583869770934e-01
-5.615844176992381698e-01
1.324667074183830118e-01
4.854097269937204251e-01
3.707460077768918727e-01
-9.645394135645449785e-01
5.021814968990556682e-01
1.069641171641250998e-01
4.549330526110447193e-01
-1.354504560545670769e-02
-6.813268171568075404e-01
8.002742676208109973e-01
-5.115288637269758132e-01
-6.370201393429065773e-01
-1.710351701414432324e-02
6.475633793991819598e-01
2.266348285738208415e-02
-3.374637515616678574e-01
-1.312176492284909957e-01
-4.650440807507253554e-02
-7.353785253834609348e-01
2.198116285435553763e-01
-6.134412483077943817e-02
4.259716091505074131e-01
6.140029744729897931e-01
4.526927054218846669e-01
6.518504234656011809e-01
-3.260515205594360921e-01
-7.193767319878819899e-01
-3.487862634962203834e-01
-9.776780610386480441e-02
-3.191118860683757052e-01
-4.569670572501293160e-01
9.096963044896085038e-02
-1.533916161067036543e-01
8.926603151209869247e-02
2.687610850191344825e-01
-9.202448087217766082e-01
-1.882855547144539898e-01
3.628803684407731073e-02
4.774265402166119610e-01
-1.353909781468484730e-01
-2.939172477507328018e-01
4.076952760046573948e-02
1.042959341391236139e+00
-3.084379945001465839e-01
4.999733576189020756e-02
-4.048491345805683705e-01
-3.307725394574763667e-01
7.373736070966583345e-01
-1.564593316848921778e-01
-3.452870139239153646e-01
3.718092917012174592e-01
-7.281070702850311882e-02
-8.318017666729390913e-02
5.810412643792364218e-01
-2.509905709544294483e-01
9.872739380037496293e-01
6.526445320547524798e-02
5.663505016830456817e-01
-4.123738319027430710e-01
5.703792169987144112e-01
-9.520198511206248715e-02
-3.923399844488081878e-01
-5.453532103791079999e-01
7.104476293005341780e-01
-3.344386252923620684e-01
-5.507813408358583906e-01
-5.733863573180757456e-01
2.080080447529848442e-01
8.291529042583868359e-01
4.724465881861080740e-01
4.481700550179248954e-01
6.992961633924835718e-01
3.223593687230854599e-01
-5.155608761141335927e-01
-2.180655325301602832e-01
8.382404089354137389e-01
-2.732607492793726611e-01
6.994734865958196490e-01
-4.568357902703930051e-01
-4.838833681489252969e-01
-8.314574398053543591e-01
9.067769615703606956e-01
9.491828134876204581e-01
-1.044094435822736422e+00
4.323656666045472829e-01
2.392481307844246396e-01
-9.323836990173442474e-02
-6.784057185432627035e-01
8.413181408027767816e-01
3.945930760436396068e-02
-1.184586870397944941e-01
3.490324278398860836e-01
2.180880874941817371e-01
4.442847663256214163e-01
-1.189941107360785108e-02
-1.756817464568690562e-02
-1.431011527740275180e-01
1.752878704322853587e-01
-7.750662597020798739e-01
7.285428309912130862e-01
-3.356745398095438149e-01
7.503689712591893324e-01
8.730843680467295642e-02
-6.887890654894158748e-01
8.206554023016517929e-01
6.164119858605648927e-02
-1.268347792203304292e-01
-1.618342187640734176e-01
-8.068451398897832916e-02
7.836307995564982809e-01
-4.733244032859093009e-01
9.170396935930045235e-01
4.026254560989663833e-01
3.296932344330298359e-01
-7.743082126393666664e-01
2.279645124657541169e-02
-6.252189437279118689e-01
-6.873682797306690517e-01
-3.040071779613340991e-02
2.452920257264704917e-01
-6.008644497923182337e-01
5.712030652207308323e-01
-4.299735877811290408e-01
5.470816754411067517e-01
1.391619756545681152e-01
2.198107388564002895e-01
-1.766082030932187019e-01
5.687040624048382564e-02
1.436427957305477510e-01
5.387894563641752732e-02
1.251435641293843493e-01
1.479993252204369822e-02
1.015468818311265481e-01
7.359584455782819390e-02
6.307709551856011121e-02
7.568928756039469685e-02
1.099030145116517421e-01
1.120721781291168923e-01
8.923997207674615184e-02
6.952681625037029911e-02
4.403596089830706661e-02
1.431901618691671374e-01
8.394849808022461501e-02
8.568908405901684566e-02
4.019588806671113568e-02
3.379671459443977372e-02
7.641556896945010668e-02
5.006486766685094847e-02
8.998408798809241771e-02
1.403460834036352467e-01
3.592187647255375843e-02
8.427749039675991316e-02
5.107029822561589411e-02
1.131551852902774602e-01
4.857371044911620167e-02
1.646037168094433012e-02
8.415701476755184374e-02
1.575468454611485825e-01
2.387531936305424540e-02
1.127028624905742210e-01
1.060517058431528908e-01
1.025718711747491685e-01
8.849330326494997401e-02
1.054784083688235508e-01
7.926078448327715520e-02
6.179055362337742413e-02
1.016997427808718490e-01
1.060098560733214457e-01
2.838257409147676782e-02
7.897547430925691558e-02
7.556304647795812623e-02
9.948374977547211340e-02
1.097510819218241590e-01
1.043515411273449461e-01
1.171733116545506104e-01
6.358760916834403643e-02
6.648067766295094605e-02
1.078666931177487548e-01
3.861528726053969213e-02
9.688580963253062839e-02
7.566792822563943310e-02
9.779134994311131091e-02
7.741980683649594963e-02
2.614793007136336639e-02
9.741023294016627754e-02
7.480505000498326174e-02
9.976884279566973490e-02
1.588887050078783419e-02
8.964500022535148993e-02
8.803931480366963824e-02
4.920048937222310653e-02
7.114860252320535927e-02
7.632804288370340084e-02
6.459682241608653841e-02
1.387418464425363152e-01
9.569660008152805486e-02
6.889798507370374636e-02
1.536739019533525097e-01
4.522226575089426798e-02
1.950905686834302280e-02
4.924290899797870852e-02
9.338504132200797780e-02
2.170371525445401184e-02
9.623194030943808819e-02
9.112173786656402319e-02
1.100151406073843902e-01
7.026035512140413331e-02
1.360100135376919872e-01
7.124565988033913777e-02
7.277308982744412624e-02
9.405173174248972201e-02
1.164065618139293878e-01
4.575455678795425224e-02
6.303237398978100980e-02
1.712778373512165719e-01
5.330433446011582921e-02
1.065354611368047738e-01
1.249216083685817692e-02
1.258499706468866053e-01
1.075171513114307753e-01
2.165660741172717452e-02
8.995938064550153268e-02
1.094030883317821945e-01
9.094100543829673755e-02
7.411176915906160512e-02
5.803148387765690031e-02
6.288248780157951190e-02
1.400751720374066867e-01
7.254742463261369678e-02
1.329431637054153681e-01
9.752908547778019188e-02
7.588284042956718045e-02
2.890881095492866051e-02
7.325200662285724640e-02
1.215261142073298523e-01
2.582580718911502149e-02
5.540577748516149065e-02
8.354166271456045512e-02
1.090582337473356561e-01
3.009360374604344232e-02
8.529949334944651740e-02
9.249093362783744610e-02
7.814051741024916065e-02
9.038789884413200859e-02
1.241913783843303087e-01
6.165603481896011345e-02
1.001536422813204125e-01
5.649224995640880070e-02
2.681398426040403765e-02
3.652225014114823809e-02
5.717930881578821289e-02
1.258899761325575906e-01
3.622579765438631999e-02
1.388486804341568515e-01
7.364074225309803767e-02
6.783966801532297086e-02
8.835857375143342518e-02
9.382255174393534791e-02
4.982636061460343074e-02
1.113301963317696042e-01
6.368122942929398123e-02
7.609226499340542016e-02
6.656777905393587713e-02
6.315616593588252448e-02
8.046106644493515592e-02
7.313779461902539247e-02
3.333658398021276115e-02
8.383893822585258837e-02
7.047009581102604836e-02
1.419534140194011196e-01
9.181837836537792841e-02
9.250197290354393587e-02
4.770004794968447231e-02
8.868971235390610275e-02
6.081699778619150537e-02
1.309503023548694300e-01
4.777724128199031112e-02
7.801090421156622878e-02
6.220644470034930595e-02
5.424799106798822851e-02
8.511492042837957850e-02
9.050150308980228764e-02
6.529063138948201783e-02
4.101125526667914051e-02
9.628428292728606619e-02
8.034570871293032768e-02
8.358115015991011976e-02
1.257996714982552791e-02
5.881894692844485961e-02
6.032017025595686616e-02
5.878960097650432620e-02
7.940349211876596147e-02
1.020059190600555998e-01
5.013233262760415782e-02
2.995810198196717164e-02
8.092136821463030705e-02
5.705780594447994181e-02
1.074525425157014380e-01
1.185625090078326616e-01
1.887993236372465661e-02
9.169924842483295757e-02
8.506591655456462175e-02
9.873518817809674719e-02
6.265576322339326543e-02
1.303053224654871500e-01
9.332047960408904053e-02
9.457552494615506511e-02
1.010555704152812373e-01
8.897487454127768480e-02
5.873202467540129812e-02
1.535143156478275400e-02
9.407589800988229445e-02
1.172107176806448242e-01
8.492412275473530670e-02
1.268348524845887976e-02
4.896619958610626266e-02
9.994493177012468699e-02
3.002339894093939213e-02
8.566444567401927668e-02
6.526903837996136937e-02
3.859745031233978441e-02
9.886985588412817993e-02
6.057075468849038025e-02
3.638158837289196673e-02
1.294157911328521759e-01
7.568135146529955670e-02
6.666916084477264581e-02
1.207706451241056106e-01
1.209808830890723719e-01
9.529375503290390959e-02
9.985144118110896028e-02
4.612577429227834175e-02
1.360152750704210212e-01
9.434466608684193012e-02
7.186482085311567125e-02
8.456667420576231831e-02
9.099457944637383278e-02
9.722517395280080854e-02
4.628799891639005099e-02
3.300173456826369089e-02
9.903025145877225599e-02
3.409600616496288872e-02
1.053804171144533397e-01
1.125752226553603796e-01
8.486005763557630255e-02
8.958248295977361275e-02
8.274015065936730917e-02
1.071261424560980280e-01
9.126587531993150815e-02
7.425429044302027382e-02
8.075910672571394444e-02
7.104160829393535437e-02
9.601867099061373034e-02
8.878537894808372077e-02
6.885991399856201955e-02
1.019924940272168012e-01
8.404140416117678036e-02
9.723770483063505499e-02
8.906366782049381092e-02
4.777474136016641310e-02
5.129597317199974943e-02
1.142549944172910198e-01
9.141650378957699719e-02
1.040647175846622224e-01
6.371626425465651278e-02
2.719332142305763353e-02
6.405083058532790030e-02
5.075074673264624858e-02
5.848409681731366744e-02
7.630412500156982802e-02
6.559286114993603811e-02
9.781918564532740556e-02
8.752688995412208350e-02
4.786130800335065827e-02
7.404807105009682255e-02
5.840874944897536669e-02
1.282580000906398954e-01
6.381026111671939116e-02
6.287901702380749303e-02
7.940346152538230173e-02
1.955000827287858498e-02
1.382683777470942454e-01
4.521661465307216105e-02
6.156455729184463072e-02
4.694885992819084614e-02
4.753381949946540452e-02
9.212753611936026765e-02
6.764413161297319621e-02
5.200344910155597911e-02
6.812404317689327304e-02
8.405344953374017936e-02
1.330618534507305994e-01
1.041694971901877126e-01
8.438156735137210263e-02
1.333911588520715064e-01
4.043752192238809356e-02
7.460887271051377945e-02
1.328522076213881908e-01
1.155289051332289568e-01
7.949984975664779741e-02
2.776999732295016773e-02
5.419189436220980816e-02
3.534922292081602024e-02
6.131995418631673578e-02
4.420604974617499405e-02
1.548283584914559308e-01
2.512243580082582084e-02
9.011964305703148992e-02
1.162750569366353126e-01
5.329318894220776842e-02
5.941606967309242399e-02
1.024188710916929396e-01
1.227894782738793988e-01
5.306125433075822677e-04
1.080951537410195645e-02
7.258600496233941213e-02
8.969085393981089671e-02
5.805012500604389558e-02
4.616264017266676067e-02
5.996906982431652461e-02
6.863446041896785477e-02
3.767853990271030629e-02
7.889975739493275408e-02
4.986409870917417331e-02
7.870218063029743583e-02
8.653168943546704628e-02
7.303751144761709557e-02
1.419583741968385437e-01
9.885348704747136395e-02
1.005718795487300504e-01
3.338125151340644303e-02
8.912071870356398640e-02
1.130659766348885986e-01
8.846439466341900204e-02
7.249401372577859992e-02
7.196004192461052940e-02
8.322887591251225403e-02
8.954470339506682974e-02
4.395009733185914480e-02
1.126330027081174356e-01
1.060187313378784107e-01
3.991060309037396808e-02
9.098790957649316447e-02
8.527400564089025747e-02
6.449475046212158058e-02
8.467873169258233190e-02
7.982527243964460117e-02
7.338761821280319342e-02
1.024248013033500909e-01
7.806513175441873176e-02
4.480471523024619901e-02
6.253970757472039621e-02
5.538509977128651396e-02
1.138505652581636718e-01
4.460715762982495058e-02
7.577719826258258462e-02
7.005497229604545906e-02
1.326773353466909333e-01
5.248542103370155976e-02
7.095237486582647857e-02
9.157291639491492441e-02
7.648179348915545850e-02
1.631679287315968563e-01
9.351477655184031734e-02
6.369478467521626219e-02
9.035710364736447564e-02
8.436035601053543109e-02
4.513260567421971403e-02
1.083221574856395586e-01
1.258703437517229018e-01
4.344742799702902558e-02
1.913916281646715206e-02
9.897479453266487537e-02
8.676666582172570807e-02
6.855405069535205898e-02
6.299772356444861832e-02
3.298439668142648384e-02
1.419378004824302930e-01
9.590204193692496160e-02
1.108133336938913888e-01
3.113471619157035311e-02
1.001688822485033020e-01
8.597327312580697878e-02
9.280639200598829464e-02
3.555937806668652001e-02
3.196344621635581473e-02
6.588750225802576799e-02
1.120180315828929046e-01
8.359945603882162901e-02
1.035557797282442571e-01
1.006608073550985388e-01
6.233569719479765264e-03
1.101195294312086459e-01
7.201936371888351118e-02
5.740632990497730043e-02
6.639665224956474432e-02
1.637395895819784841e-01
8.087565088477764730e-02
3.097396422957464715e-02
1.037180991331234647e-01
1.209425185801305258e-01
8.596849578353746302e-02
8.321811175310855901e-02
8.897628178986684289e-02
7.411213123544033166e-02
3.300934834829101494e-02
4.009379234256193331e-02
8.382753998562328390e-02
4.119633113334347091e-02
8.501231337863084103e-02
9.547586708105801345e-02
1.034559195605017357e-01
7.458052911236515148e-02
9.994110727395827398e-02
5.942919902092933665e-02
6.222289902345812945e-02
1.181173799653204293e-01
1.067321673213171840e-01
8.758502272633818253e-02
6.990401386290402697e-02
1.102014026695048304e-01
7.270502754423185943e-02
5.711586912993600607e-02
8.098633937919623438e-02
8.836563717246015415e-02
6.091703192602108269e-02
6.331663193752963548e-02
1.153810250909467761e-01
6.919049136249132148e-02
8.401438501712131524e-02
6.533815228542200204e-02
1.035074250056732120e-01
2.979412293302698134e-02
1.407925247932406143e-01
8.063806893853601998e-02
8.033249084093359305e-02
7.658402688160503846e-02
6.550383897161132785e-02
1.218310941570408951e-01
5.921040901099895032e-02
1.208854804413048711e-01
7.855165439702235797e-02
1.774559823767293265e-01
-1.231016181391986208e-01
6.412873889306774933e-01
-2.849782903339531659e-01
2.774321721908331040e-01
-2.077777568900864846e-01
-4.196925955735784086e-01
-2.887223316931709638e-01
5.806780109991873662e-01
3.823170943246398945e-01
-3.112386560421600556e-01
6.907734545424706885e-02
2.851031445788153040e-01
2.053036771997894805e-01
-2.752447948212882189e-01
8.243451775792678404e-01
-6.451471137477802209e-01
-1.093144652892602681e-01
9.159406393804073732e-01
-8.044038347595269256e-01
-4.496307403333949515e-01
4.595323126433777383e-01
-5.825360024748102994e-01
5.118496275036779064e-01
6.127007837133826573e-01
-8.938562625903778702e-01
-2.576758398832006414e-01
7.239050450709083595e-01
8.472239522065420081e-01
-6.038369851379332687e-01
1.362767904725613877e-01
8.681061579110397330e-01
6.325467332112345575e-01
-6.434881672772563288e-01
-6.973328043238004315e-02
-1.730019540167585801e-01
7.375169263594983926e-01
-1.001440916163552464e+00
9.354722059214111152e-01
-4.037611905991114747e-02
5.173845083128140176e-01
1.609654655844048876e-01
8.447374076060754078e-01
-1.096762162850023481e-01
-1.470870695804736838e-01
2.110583435143466025e-01
5.267178106060718124e-01
7.950659621645686514e-02
-6.175968368235523753e-01
-5.426969369376664909e-03
2.037765029863403132e-01
-1.204902050519788756e-02
3.202783137271734276e-02
3.288738671664990787e-01
5.713677276379295344e-01
6.984388560971796500e-02
-3.365319415303735240e-01
6.260528223822681149e-01
-5.821600035768101367e-02
-5.755912959665396844e-01
1.401764672245928156e-01
-3.486946817648402530e-01
5.645786134756903829e-01
5.096877732071928291e-01
3.501954034383031877e-01
3.013700207646138329e-01
3.019574556713454649e-01
3.015789022738997183e-01
4.771186237992124796e-02
5.525278018184276441e-01
1.377998168933954326e-01
2.715736144948317499e-01
2.500075296948268688e-01
3.372702841687800768e-01
4.820319273949049133e-01
2.520233596362977946e-01
9.714943083427681758e-01
-1.590556794513818817e-01
6.087200163820798426e-01
-2.057393988722209799e-01
-6.270059136600448779e-01
1.021833557413465154e+00
4.899066346632914293e-01
-7.568499582690888516e-01
2.621595264745662512e-01
-2.343919540130324775e-01
1.704136778180202205e-01
6.889503119340820159e-02
-6.352251386334378802e-02
-6.933462832224990269e-01
-1.351653898908596052e-01
9.334315670759568695e-02
-1.745557297126952914e-02
-5.438857454929245383e-02
-2.998912408799150331e-01
-1.175913469553920981e-01
1.274860507233823159e-01
-3.653828558175890029e-01
5.397592256475223227e-01
-6.227989582888245751e-02
-1.352776362539455657e-01
1.116836465482931695e+00
7.692034921190966656e-01
-1.518856237638907536e-01
-1.081261854152616025e-01
3.468564147511810081e-01
1.491399893875461000e-02
-5.124561405150873661e-01
4.342645083670500228e-04
2.187252598414514970e-01
2.869069934982759196e-01
4.695261038197738879e-01
4.640900517326486396e-02
7.006692802685654531e-01
-2.428955711178144017e-01
-3.401520959553143153e-01
1.054705260397185151e+00
-7.863740277209538831e-01
4.479737305385679824e-01
-9.353511830632387225e-01
-6.541354201658041712e-01
-1.129130782273095879e-01
-2.809697235638813906e-01
1.040137604683169847e+00
-1.107960799122252593e-01
1.202738101934640869e-01
2.793414728214553278e-01
-1.467805903505617071e-01
-5.198932916637997170e-01
-1.663631129364772920e-01
4.010257117924253545e-01
-6.920358433845755775e-01
-6.976714281183780120e-01
9.632860685146682478e-01
5.658256513340782501e-01
1.621203596072567921e-01
-2.475364035415085484e-01
5.776244552082419048e-01
-5.546632209364139587e-01
1.833039603955104457e-01
-1.180691614451464533e-01
2.530980457308040221e-01
-1.536060170509297995e-01
1.746448336178400007e-01
3.628889302523919530e-02
1.046290764206580515e-01
-3.015919053697341257e-01
1.009264213230528062e+00
-2.801201238903387458e-01
-3.214549899860088544e-01
5.695441386826911589e-01
-1.255917275642738917e-01
-7.199286796178384629e-01
-3.299928317856346549e-01
9.878735613480873479e-01
9.539570050321810601e-01
4.184858470294866017e-01
-5.886142318871672163e-01
6.239173527975666600e-01
-4.877021459338296561e-01
1.104528413278655696e+00
4.195451248962835944e-01
-4.347923201204373922e-01
-8.037514185735463723e-01
5.357485748491051109e-02
2.404389772363381139e-01
-7.795018959467855391e-01
2.020253133041157168e-01
-1.641727205967195014e-01
3.903129002230956157e-01
6.858121184511676294e-01
-9.623232289941208162e-01
-2.646596836573889000e-01
1.373338911829132536e-01
-5.711866935687838209e-01
-4.935921015556476443e-01
1.081490133672402765e+00
3.399759649003941675e-01
-7.844227673804411438e-01
4.159365716545584402e-01
-3.891804331644199699e-01
5.693212952065528354e-01
8.909948406276517463e-02
8.596311925209885185e-01
1.419115189315675041e-01
-2.204876516143382814e-01
3.329803824106965515e-01
3.573415758518083685e-01
6.413665403859445391e-01
2.345625849204170665e-01
2.253965840534072618e-01
-6.015097231729361615e-01
6.603912661145339147e-02
4.558865549213698687e-01
-1.705447273238293870e-01
1.427033901154013407e-01
-4.198948960773615235e-01
-4.385282715755961513e-01
3.927262567242830738e-01
-3.371720167441569910e-02
3.170281964822805471e-02
-3.774650202317304110e-02
5.426665574125866254e-01
-8.764150515889778115e-01
-1.309962912663438783e-01
1.152746560598916892e+00
2.113375242066430071e-01
1.036525088208657963e-01
5.790474991474233724e-01
-2.508008063243278296e-01
3.115665779531872071e-01
6.163448783936514852e-01
3.073433315819401601e-01
-4.029290963142136139e-02
1.600578121485594224e-02
5.860294214092290899e-01
7.205164641936009362e-01
-4.684825209615362529e-01
-6.838089465447561022e-01
9.552675524558255915e-02
-3.070683878371783249e-01
6.468954216064819185e-02
7.639109073951878548e-01
4.648234506606503391e-01
-7.722929115679906253e-01
8.595476390979097658e-01
-3.513825077439109990e-01
3.368954041713633774e-01
-4.839783929029065623e-01
-3.201552430366092494e-01
-6.418705022141862893e-01
8.306027799959327107e-02
6.909035419140728829e-01
1.005060420556637357e+00
-1.938967809236266937e-01
-4.006021076801480341e-03
-3.439160061818279934e-01
-5.133221373262744081e-01
-4.481304050503293057e-02
-2.723536901472922017e-02
8.552915144966506400e-01
-2.438022032042510279e-01
-3.890054667993282367e-01
9.431303917924378777e-02
-9.622420945343312937e-01
5.592903141061071892e-01
7.088643444683481176e-01
-4.235993638384318860e-01
-6.190907801789570231e-01
5.365637095429320880e-01
2.592043253110300483e-01
2.480774653773993033e-01
-8.224691242893330534e-01
6.125409663414660422e-01
-3.595292868389307062e-01
5.476619179504106649e-02
-1.910400051878009819e-02
5.739179194196607492e-01
-2.625600106412768683e-02
-3.224612907439385334e-01
5.559610400495723637e-02
3.749564747144946697e-01
9.141502403195003179e-01
5.119131660281849294e-01
1.177337094414537544e-01
-1.158912309349970776e-01
8.754202974056436437e-01
7.523119715718348255e-01
1.411218274756984581e-01
-4.662263743944883299e-01
1.929073876179627500e-01
-1.210299847997303863e-01
1.804581602231125625e-01
2.433611779521961394e-01
8.902874740432996647e-01
-2.128109244543984618e-02
-4.369403520770415716e-01
-1.788515238817837277e-02
4.268232782334622222e-01
1.396824153419435888e-01
7.887625259035484504e-01
9.511990032024494890e-02
7.049541359597986112e-01
-1.024864958940900350e-01
-8.250496067148398449e-01
4.882542336442907693e-01
5.709231817865713099e-01
4.451259622784565217e-01
-6.796624400723646486e-01
2.201188299743972732e-01
4.016057396052166023e-02
-4.300675594548279412e-01
-1.978035326562507801e-01
2.485630359449845783e-01
3.403827071064793874e-01
2.039445221496472560e-01
-3.955021890167191856e-01
2.507193381809879051e-01
8.170403931291352340e-01
3.538721934331857666e-01
9.807924592069896530e-01
5.253080441472756101e-01
-6.017219301471066900e-02
8.241824896211084883e-02
-1.711680829691399897e-01
1.310849171514118505e-01
2.077623435087994630e-01
6.538452166045481961e-01
1.091486821206453031e-02
-9.025066125896952229e-02
-1.415998324269049924e-01
-1.593851292138303011e-01
1.049924814622488434e+00
-1.433667217147450990e-01
4.122145344404152256e-01
1.384070314106306335e-02
-2.147205108707599119e-01
-4.097199971126985751e-01
4.463573420599359909e-01
2.793578551875195437e-01
9.158227155648157591e-02
-6.012829885571624455e-01
-5.712144345838822412e-02
-4.068531945951359696e-01
2.706803996107240984e-01
1.041294241599594494e+00
-4.460444579689321620e-01
-5.195217276200360113e-01
-1.780373960833226965e-01
2.288831897369051072e-01
6.347949312390952503e-01
6.369196988008020144e-01
6.595219604292309468e-01
-4.361661142331034191e-01
3.220550799074722303e-01
8.581659604272565689e-01
2.749056824713831948e-01
2.723399390326215475e-01
-8.451369745406195344e-01
1.664603915286893554e-01
-7.659728713882129059e-01
-3.034819897061399319e-01
-1.671087813008556022e-01
1.217109554733139865e+00
2.255651921074321858e-02
-7.421515781732982431e-01
-4.355943490014904662e-01
3.240461434405537133e-01
1.060212154790849681e-01
1.385091463323400995e-01
-2.303227193655927874e-01
-4.490219831461128575e-01
-4.424896021232779253e-01
3.944378820035358002e-01
3.484088988320968028e-01
-6.405907398069909942e-01
-7.431800987933744052e-02
-6.333845157315194374e-01
-1.488751456653321648e-01
6.786208330274914324e-01
-9.978029040521250170e-01
9.775768198288092847e-01
9.579582267416419938e-01
-6.519409493218787377e-01
-7.788673339142517804e-01
-1.716593089300137431e-01
9.872176031281169051e-01
8.886870279717598020e-01
3.764486599301275493e-02
-6.043851049254576890e-02
7.303903175731667474e-01
-3.563501076383858712e-01
-6.293432342354007281e-01
1.078782077229849756e+00
7.700560599835819531e-01
-8.906505829772981553e-01
1.726747887777543566e-01
7.394009033914155093e-01
1.277139129439374687e-01
2.446825722004014048e-01
1.185465926335948633e-01
9.027569143413881336e-02
-6.113560677801692655e-01
-1.905587459989713794e-01
-4.840463598591746019e-01
2.679303407963588013e-01
-7.017998164725741672e-01
5.175767397177638562e-01
8.427462989674854299e-01
7.478909145074137399e-01
6.160696298677830196e-01
-1.771783792068872265e-01
-5.750633933710902479e-01
-3.246350895905415479e-01
-2.535750935404252338e-01
1.416773708597487968e-01
4.036079065598548871e-02
3.229886805653376936e-01
1.251457115908118034e+00
-8.960892496098865623e-02
4.183863080182596145e-02
-4.493213935067535414e-01
-8.946265186500486355e-02
2.574120689616714586e-01
7.595149600869499640e-01
5.317037130019817148e-01
-5.806736246482425701e-01
5.115634194839168147e-01
1.405233560704968743e-01
-1.101232607344647008e+00
1.152046203308100258e+00
6.902024272344201017e-02
-4.555723022941930989e-01
1.042625350448532912e-01
5.602395115803024961e-01
-3.891664640857057100e-01
2.093260011428715178e-02
4.166126810127561697e-01
3.374309492968906588e-01
-5.665314180351276319e-01
2.746860608516221158e-01
8.228406246687016701e-01
-4.636923893661666352e-01
-1.706370033258827745e-01
-1.517694182915476919e-01
4.866780202054271642e-01
-2.605878120894212779e-01
2.956639357941002189e-01
4.643223628026850736e-01
5.934155099503664044e-01
8.241118852888570379e-01
9.748740666160110591e-01
1.084239671595349647e-01
3.808925076864141390e-01
-1.960221500277735951e-01
4.380009649332596011e-02
9.522684747804226468e-01
-5.536644361787995683e-02
-1.382083352737094838e-03
-9.657597394690273923e-03
1.012162140619849993e+00
6.939053861981855365e-01
-3.082449146836551898e-02
-4.603017513283997331e-01
7.022720921744082245e-01
1.315859959542213131e+00
2.156005629180085259e-01
-4.368899771438669033e-01
7.475800991623697545e-02
-3.601856829500452162e-01
6.764799293301897165e-02
-8.315561589898683159e-02
-1.544896073685050886e-01
-2.387301936218460749e-02
-8.456030578519231344e-01
1.118113964516910697e+00
-8.827318508369816352e-02
-1.000218815487549762e+00
9.232473297468688500e-01
5.561899865145372157e-01
-1.035184334389091187e+00
3.857126419996998457e-01
-3.369911533272666217e-03
-1.883199450894794125e-01
4.471600870942710193e-01
-9.151613919162431277e-01
6.337656050495523719e-01
1.918075020430953792e-01
2.027651294649154279e-01
5.072155772478653679e-01
1.536933755168051058e-02
1.048816305871600602e-02
-4.810209054913739957e-01
2.785923971412979094e-01
6.275388178881809997e-01
-5.620372534452230950e-02
6.812745470154175642e-01
5.659255188716938445e-01
5.299512586981450779e-01
1.872241744154449217e-01
2.427016837233982316e-01
5.477050291047098618e-01
5.456670274000933324e-02
8.434474391852978536e-01
-2.629108482168275585e-02
7.738736024900570998e-01
-2.640844755480696859e-01
-4.206150241710047699e-01
5.572086792195347638e-01
5.157342753629541310e-01
-2.485585610585761829e-01
4.062529176388708918e-01
4.152181767142605340e-01
-1.269155717664353644e-01
4.003143927568304089e-03
-3.372630934991214247e-01
5.483324634668805819e-01
-7.791372532041280774e-01
-6.022723475463765963e-01
-5.837705115085653484e-02
1.161669121128116045e+00
2.827402824701425593e-02
8.003883664679463383e-02
6.327524803716563784e-02
3.159696884691201579e-02
8.943992877923064022e-02
1.103224108120380575e-01
9.262024266846746734e-02
1.433554140192572386e-02
9.471816513620319455e-02
7.260414997532187165e-02
4.251589872618937588e-02
9.435005630104467689e-02
7.703504466359634151e-02
9.891503456251074522e-02
7.316436812840251824e-02
9.918646392822509650e-02
5.292488285340956472e-02
9.936213502914686968e-02
6.085628479139441882e-02
3.903837063218692366e-02
1.041908365749143334e-01
5.138430725834340629e-02
1.030221940704640904e-01
9.695879899119551337e-02
4.142305396600567263e-02
1.262896470654563119e-01
7.629938652508393149e-02
7.133744914754640287e-02
5.532972076581883086e-02
9.526952330073465425e-02
8.155204243426338040e-02
1.571512089738438256e-01
6.410830285914875803e-02
1.167517605630053468e-01
3.972808950693659802e-02
1.014387604450200514e-01
6.652284226200257111e-02
5.318767574626794697e-02
1.298057514394789780e-01
9.354845660417208941e-02
7.946742372579113090e-02
1.342506572035619405e-01
4.648664702372348745e-02
5.840242253112450793e-02
1.068541817524161636e-01
9.425909584261334129e-02
8.932314709130416419e-02
1.335882167130521825e-01
4.658084529086788800e-02
5.224838865052156694e-02
1.214759898481802131e-01
1.136386781316607586e-01
1.210066881086206414e-01
1.203985862753264996e-01
1.012546708115145550e-01
3.871830921552671390e-02
2.988894609761203261e-02
6.074601965563571071e-02
7.891097102919480966e-02
8.678579085817934857e-02
8.277849952407417833e-02
7.002931350399564658e-02
9.497102717829043750e-02
6.333073145815977523e-02
1.117949797001444312e-01
7.266635137457107263e-02
3.367972226727673855e-04
9.816041810489077590e-02
7.825548237727740497e-02
6.395986200626042895e-02
5.844331873499617608e-02
8.462403956643169134e-02
4.349923247956152123e-02
9.210014819595474522e-02
-2.134582864928073406e-02
7.223532374467930839e-02
6.086890522677602250e-02
1.016289806374905402e-01
9.607089438348435928e-02
8.587840306195823614e-02
8.196152517300470119e-02
7.648656686189884979e-02
1.057161965342267307e-01
1.201031307320744035e-01
7.430489955613560349e-02
8.809199346003546149e-02
1.005074083846212718e-01
8.495161437622059108e-02
1.017852983275755185e-01
9.769866543695207572e-02
8.325091202845190386e-02
2.524470757968083623e-02
1.318972256567871593e-01
4.139331227525532009e-02
8.606764344129295974e-02
4.139796072905516100e-02
6.383837778702537713e-02
1.188056975845095814e-01
9.621868783605551367e-02
1.380593434932312069e-01
4.599308135619994270e-02
9.891819198985687955e-02
1.269968045472544826e-01
8.532191204269788665e-02
5.750254439339444468e-02
4.171721411575748939e-02
1.148412329343979771e-01
1.070366314473985281e-01
6.503483821636803219e-02
1.053256792010795612e-01
3.902260473221080828e-02
1.125166256876099918e-01
1.230858200740815450e-01
7.303126542011108280e-02
7.713990970746176234e-02
1.350792024988139439e-01
5.754138067497256703e-02
1.309320567674545077e-01
8.817955420628482976e-02
2.610295678524924071e-02
1.089914470677128683e-02
1.114470034151699568e-01
1.959541418814118863e-02
5.923411552755559334e-02
8.752353458622162685e-02
3.198963955853220686e-02
1.304494518237470368e-01
6.406683503599637508e-02
4.159938505411923254e-02
8.285102068863298141e-02
1.322159770453840422e-01
8.039747093549180768e-02
8.925869636099860449e-02
1.179456284315763548e-01
6.050826184732526619e-02
1.324122659010668057e-01
7.861627065612715459e-02
6.995253454670445625e-02
9.473373191133671600e-02
6.098645128868634968e-02
2.993664301271119904e-02
1.226335267307568921e-01
6.281794589307018728e-02
7.767030204002732530e-02
9.044103473895004353e-02
5.677660779152873816e-02
6.412455053969819130e-02
1.429506944238197741e-01
5.944014909197082447e-02
7.124957645114650406e-02
1.085371378251074326e-01
1.120894935304311696e-01
5.816667646185556817e-02
8.072802413308662051e-02
9.020758156994811150e-02
1.234423793857822721e-01
4.669394827255239633e-02
1.046120294755883695e-01
6.502488761770838788e-02
9.596174395644235799e-02
1.022811147685611932e-01
8.871687235797036386e-02
1.075390242471412489e-01
1.310794976743109019e-01
6.080036846344572671e-02
9.132417491302403934e-02
4.598481505848040635e-02
9.437538486260833859e-02
1.020038018672978775e-01
4.534638139229919124e-02
1.012567124777457583e-01
3.016799017087339399e-02
1.175331590968918122e-01
1.046986666790854087e-01
7.630392956783116354e-02
9.418088690131409813e-02
6.961039355555331820e-02
1.122576829333670478e-01
9.065685485211984196e-02
7.298509208635024781e-02
6.067666663414079953e-02
8.268453729253072426e-02
1.028909401781080840e-01
1.465487046624779077e-02
1.112907969107797962e-01
5.835093806073250733e-02
1.051327092943143138e-01
8.532654102972973831e-02
7.034372589714299462e-02
8.525621347142214868e-02
1.151184371422627195e-01
5.303199868665019190e-02
1.186860476699647116e-01
1.078352099102936335e-01
4.850278305898102910e-02
6.893307019567708471e-02
1.059602257073493509e-01
9.804358245210764711e-02
7.600613456419991198e-02
9.114989514295834816e-02
6.598157878108287799e-02
6.837995468741467353e-02
9.698434864195319693e-02
7.894300096122028321e-02
1.120123889003238338e-01
1.274441518644867377e-01
7.121944348464763486e-02
5.963110675635211605e-02
7.457676824195759446e-02
5.122350580070496318e-02
1.221686633291216573e-01
6.020381402680687055e-02
3.651015398681699969e-02
8.165722551580452404e-02
1.696681073547906191e-02
5.184104767677057829e-02
4.702842819419741915e-02
1.082456801590864492e-01
8.430972081884192948e-02
4.467643479386574495e-02
3.997009256073339595e-02
6.142531805814265000e-02
8.836822582429888773e-02
8.676324761009120146e-02
6.818413135134440695e-02
7.405765476600069397e-02
1.032527823891257884e-01
9.990054030722067546e-02
1.161812244883041884e-01
4.684037029216997494e-02
1.632749176880234077e-01
4.697874822395393252e-02
8.131903435390680501e-02
9.076992030321541505e-02
1.015127929232575027e-01
4.255960396085904651e-02
2.998238043024338897e-02
6.641918802767921015e-02
3.363838771892494611e-02
6.445922899230262237e-02
9.312420889803750546e-02
5.429892780150995940e-02
5.869010368253061577e-02
1.118539567144102159e-01
6.068118061472962954e-02
1.148884131846407003e-01
2.962725042706955067e-02
5.385905672471547057e-02
1.405251053470014666e-01
4.655511048051996087e-02
1.142170592600447177e-01
5.357274165083402567e-02
1.057273697118608635e-01
6.130272375872077018e-02
2.832028132410310123e-02
7.666246506231350066e-02
3.293450425017391964e-02
1.058265423880020845e-01
1.112894821628042930e-01
4.622912552159956501e-02
1.303699670602750382e-01
6.303753587108390510e-02
1.265519224834887602e-01
9.014479905281772010e-02
5.693592104058924769e-02
9.418769508630188414e-02
1.524686560411269154e-01
2.652039520495660940e-02
7.962205543820720377e-02
8.895288350744781636e-02
2.618757343667305407e-02
6.649418116393480960e-02
8.919621086120897713e-02
5.258116947875471348e-02
1.035976032097868232e-01
1.275918541145974472e-01
9.741026984009602818e-02
6.840867733285561914e-02
1.250089940376369890e-01
1.247646116455544546e-01
7.085606057130128255e-02
5.851639666162239406e-02
7.190787232933418260e-02
9.032723616876774109e-02
1.402947999438384219e-01
8.017817710181972257e-02
5.674331701910109715e-02
1.268966913988288647e-01
4.083920402734540073e-02
8.361395146844612103e-02
6.096940080279506652e-02
8.542349647981747895e-02
1.183888064631433007e-01
9.971123543467533268e-02
6.117015606202073907e-02
9.817132265107259004e-02
7.753937327716751982e-02
1.045231827209660569e-01
7.898445590284011719e-02
8.387209900405083463e-02
7.018381620468248927e-02
2.975956114058853075e-02
1.331428980719691069e-01
8.912220381612920295e-02
1.111283407617492808e-01
3.722580773694295769e-02
1.042908007790187830e-01
8.910144698966400434e-03
1.471678016959161728e-01
9.506644355539763114e-02
8.805849308203132775e-02
7.968571596065668339e-02
4.706329855567496084e-02
8.891592434105752285e-02
3.340377202868127782e-02
1.625282037364395304e-01
5.511984662250596356e-02
4.937245209500928239e-02
1.137218501323240538e-01
5.974523222636322212e-02
1.188572509164418367e-01
6.307587007407897128e-02
1.228175932818626470e-01
6.082916959295084358e-02
6.331096077876986576e-03
5.211583067734908148e-02
1.054053317930229300e-01
1.272518953545695164e-01
8.322860232811594983e-02
2.834441653532588506e-02
8.905866270615296620e-02
9.175914263062898146e-02
8.229621278184927335e-02
7.455690474676651691e-02
4.970311961305957926e-02
1.409844524289370071e-01
5.788194725069206042e-02
8.225590491082800104e-02
3.175460098873476855e-02
1.570767306989155065e-01
1.081953602351454630e-01
2.148996683972959759e-02
9.594891503031274804e-02
4.637107612781327798e-02
1.098756898957071598e-01
4.756868978296490552e-02
1.092954185911540338e-01
7.808760048445180513e-02
6.912267831974103216e-02
6.402741190710756203e-02
7.561208468889185630e-02
9.096331201814079892e-02
1.095981111601779245e-01
6.394097329082942816e-02
5.863458641918603553e-02
1.168081149538870156e-01
1.154081370259702338e-01
7.761879823176549842e-02
1.359894696083911447e-01
8.533880600893734014e-02
1.232017828748358246e-01
7.423199779451850056e-02
1.290939129209953823e-02
8.602673075910544087e-02
5.781195820215000170e-02
7.972408804155352302e-02
6.778686135604342078e-02
1.160611504868337279e-01
3.341057265710539043e-02
1.591814446731185939e-01
1.209171807668735082e-01
7.787863954876737826e-02
5.029721755265922217e-02
1.110431609125401425e-01
4.739013636429544041e-02
7.656255184271915093e-02
1.058360375094642425e-01
3.710173046877220104e-02
9.995526644718348563e-02
6.950976259401488166e-02
1.016786316024000242e-01
1.231271086925292413e-01
8.498189065865219272e-02
8.616926074226576027e-02
1.121011771938281998e-01
3.653003641254345957e-02
9.533900812153581206e-02
1.188320115690591899e-01
5.201607513718953246e-02
8.666777783444334915e-02
4.735183209867530746e-02
1.541785631557149316e-01
3.114763006647822043e-03
5.543148506045907781e-02
6.099667948514185534e-02
9.508434116476177644e-02
5.053178585286277613e-02
1.320000546749975634e-01
1.186901433759348506e-01
9.480553198235827650e-02
5.566408264899715130e-02
7.727068568580035268e-02
1.403694079007693218e-01
9.896370033773584096e-02
1.059625664153840963e-01
8.622117067203455276e-02
1.076930948958209761e-01
9.833817843972639250e-02
3.625277383392726260e-02
8.764746028740640071e-02
1.213628760105168458e-01
2.969946785169187004e-02
6.399019629401618559e-02
3.631498816909337762e-02
1.068056840164084142e-01
7.943850984327381626e-02
-9.544069231087772692e-03
-6.450776825969800621e-01
2.667324443934210865e-01
-2.258174568130705828e-01
2.311646697899035763e-01
5.994559206301680598e-01
3.004031741323835991e-01
-7.487151776949511062e-01
1.320612206366297281e-01
1.173294510754094411e+00
-2.155280964024076373e-01
5.930308545983288271e-01
-5.812341976005908073e-01
-7.725247750741369435e-05
2.285367838111875827e-01
6.261294205315517392e-01
5.646975829557493443e-01
-4.944038637073465137e-01
2.740994342141553353e-01
6.277406103180147579e-01
-5.602698802700912806e-01
-2.823068561494001538e-01
8.792676586067850186e-01
-2.531534741584136050e-01
6.005586979554339983e-02
5.677544440719503038e-01
-2.018653597194282057e-01
-6.301514354986241795e-01
-3.049529229490179350e-01
1.036290649801610009e+00
8.687177458373974703e-01
-6.415529274353450884e-01
7.115901747705457581e-01
9.194895157776326045e-01
4.416301375821750641e-01
2.377552561020992161e-01
6.745031477185248203e-02
3.251457843304084161e-01
-6.166046922937518104e-02
-6.790979110935276841e-01
-1.163607213007481489e-01
-6.732504175293385629e-01
4.156850773464723092e-01
8.831733605663333320e-01
3.175781816137422386e-01
4.325033943542617165e-01
-3.399341450813723187e-01
-4.166240074451103004e-01
8.008005569716769578e-01
-5.533358405950413728e-01
-1.493169190632144261e-01
-5.777368621203690102e-01
9.850534857514681164e-01
1.623305496629623978e-01
-5.458815147508654375e-01
7.388903904081287055e-02
6.429768137859118715e-01
3.940219253055708970e-01
-3.730515711923295674e-01
3.487471031661719123e-01
2.928887102669573417e-01
-4.609176363502412443e-01
-4.390458221994028021e-01
-7.789194200751233810e-01
5.793631477949482550e-02
8.557501561267468748e-01
3.049629277735820265e-01
8.188641552324303907e-01
-6.081506435898843543e-01
-2.091691435079991168e-01
3.126868227966588254e-01
-5.712231872383682907e-01
8.087323137243742632e-01
7.533623503453350523e-01
-6.520535760083439047e-01
6.763424581706367622e-02
3.297275726669394724e-01
2.374041674223202059e-01
5.303504374547312050e-01
1.020386574565347537e+00
-5.918042558369206868e-04
1.208755548096648452e-01
7.961818076153666102e-01
3.458709733692758720e-02
2.761184340454441166e-01
-4.188087960778255625e-01
-3.718554223438431255e-02
8.604393925016323719e-01
3.583741630317875959e-01
-2.952190205990399274e-01
1.085038495694920502e-01
-1.067620011721499146e-01
3.406487454247087987e-01
-4.682301382896217889e-01
2.259090117358199534e-01
2.140184563255546901e-01
-6.736269778322520052e-01
-3.770573839251605275e-01
-8.494804726607978473e-01
-4.079618385475213271e-01
6.744471856904634688e-01
3.065558376296505516e-01
-1.031147055174627125e+00
-2.272688190982235235e-01
1.202801238598270872e-01
3.460078964795435530e-01
5.595096110438326775e-01
-3.853732243785993883e-01
7.842885970332065249e-01
-6.268799922121581769e-01
-6.633638218868439518e-01
-9.222115466489209934e-02
8.972501271018246127e-01
-8.004977736423574131e-01
-3.765708998955182851e-01
3.714904615741872473e-01
-4.286157764013837079e-01
5.620721928468046524e-01
5.246283638321828091e-01
-4.790604156344184239e-01
-7.879601503995168343e-01
5.415576029194826280e-01
-3.223643334552034334e-01
6.820156105413626157e-01
-3.704221332613710782e-02
1.001967277343233320e+00
-6.116141865805705402e-01
1.946404904704224781e-01
-2.428699271617682509e-01
9.804782955225206376e-01
1.131356837828381284e-01
8.154449336134830251e-01
-1.516979227915530963e-02
-2.814943348900804665e-01
6.109412341303769312e-01
-8.386129339038830843e-02
1.852400469788026971e-01
-5.232628967549612931e-02
-9.818285366656999136e-01
4.803131988930450791e-01
-4.035263621707209092e-01
-2.477732316618714570e-01
3.353092102382045359e-01
-6.708050263584204309e-01
-1.929405650672200156e-01
3.351918804041161271e-01
2.371255352201404598e-01
2.807912969123090852e-01
1.806384501367456485e-01
7.678956169692080502e-01
3.739445839536361116e-01
2.334481241803790796e-01
8.529618273759994596e-01
9.073489997599433199e-01
-4.248963450054510926e-01
1.508088526074941593e-01
6.224104795790766920e-01
6.326188508086210138e-01
4.106190119287292384e-01
-4.405158727624653991e-01
-8.201510081029378396e-01
-7.083411120925633409e-01
1.047578023053036711e+00
-1.818967800957285441e-01
-3.997420607390718243e-03
-3.319374909784172933e-01
-3.914879347789836928e-01
1.750989554691844419e-01
-1.234737145944077435e-01
-1.707870846898814909e-01
4.401367788045393303e-01
5.037237298735447455e-01
7.073625555066357373e-01
2.986630018482840931e-01
-5.982641561828507815e-01
5.804413268694789130e-01
3.839918023352462684e-01
6.425673053517692024e-01
-1.768264831173275153e-01
3.379882430147030936e-01
-7.601374677427222837e-01
-7.600923593539170575e-01
4.616763673079225805e-02
5.825466270950467873e-01
-7.987330663102237827e-02
-1.871460874766457672e-01
3.829835933664312297e-01
-9.978291988597924878e-01
2.762885440159137396e-01
-3.943674042611755581e-03
2.602539531251439886e-01
1.285662054690746292e-01
2.290810063487142695e-02
-6.845825788977373261e-01
-3.102230329596112335e-01
4.466861820115196058e-01
1.914561589291023103e-01
-1.383502288541181395e-02
4.276773363481107815e-01
8.209855364810075828e-02
4.937440739037752824e-01
-8.077518488563579790e-01
5.080192617432567337e-01
-4.753160794773172992e-01
5.590798124482578846e-01
-1.050212990994763285e+00
5.735735339830191348e-01
8.662736146412114424e-01
-2.774297363268689587e-01
-7.862009844354224120e-01
2.700129234032670467e-01
3.313849458151290062e-01
7.555790128758368418e-01
-7.648520633940573132e-01
8.962973694789876100e-02
3.494117808673511405e-01
4.618103924318469056e-01
4.866684366612076817e-01
1.676974344419699531e-02
3.639726722461891217e-01
4.681782491615143482e-01
1.592434355959557457e-01
5.590748461715182305e-02
2.596987670356167288e-01
-2.683923341524637740e-01
-8.873417584411944503e-01
-3.395304777442601507e-01
-2.145023854645019823e-01
4.095146855661795371e-01
1.219433696443786630e+00
-1.769589413470673278e-01
8.079836781027937009e-01
-4.288897474371204943e-01
3.273069341082577854e-01
-5.256208119466500017e-01
-1.138073898813379004e-01
4.540035559304327895e-01
4.313559081310516241e-01
6.555202707476850410e-01
6.199072720608197473e-01
8.121538096452532995e-01
2.765801831189788548e-02
6.986592052596717339e-01
-9.203530964153910920e-03
-3.771126625161763668e-01
-2.044509757374352865e-01
6.287318106500020543e-01
-1.117566686500540002e-01
-6.765071696446658400e-01
9.535929074107314385e-01
7.270803948824408058e-01
-5.315470039859202522e-01
-9.781012225877192545e-01
3.454396103910886140e-01
6.743406042915554011e-01
4.405264286430092269e-01
-3.362778703558907956e-01
4.001858266171008927e-01
7.536931529212816949e-01
-5.204938012376782996e-01
4.189036899331864960e-01
3.798325423411962887e-01
-4.009659825354760510e-01
5.674824780442259131e-01
-9.713987216117647705e-02
2.646750842694711725e-01
-8.620917287092283443e-01
-7.363996781996877683e-01
2.468289785017219184e-01
-7.539967122248084630e-01
-1.051046418352840073e+00
6.784539810615651811e-01
-4.611145699118952002e-01
7.579336256765399904e-01
5.803285937137596662e-01
3.264644821754141280e-01
3.425050711865731401e-01
3.136610201514159479e-01
4.036194081020951785e-01
1.325793497338530746e-01
-4.865593367784010193e-01
3.760018076659318864e-01
6.738144596748121273e-01
3.793982253041832120e-01
-3.627195565942019084e-01
-6.956169964173954945e-01
4.201429461448617508e-01
-1.022069149801478755e-01
2.920164335615597073e-01
3.434271362857824195e-01
1.704699891106952192e-01
5.429948375860267351e-01
-7.680161039000181766e-01
-3.630512360198186878e-02
4.278694953407549129e-01
-7.982331132352812331e-01
2.289403585070090286e-01
-5.512824290856038756e-01
8.022286931693826256e-03
4.875149081588138755e-01
-1.658695242373148249e-02
-1.010725112455888308e-01
-8.202532330900494939e-01
-1.833354465694778668e-01
1.267455326241652414e-01
1.548288059474256240e-01
-8.599035153434155809e-01
7.176042260327549771e-01
3.490673824393354385e-01
1.600111057683017701e-01
6.889862039630502144e-01
4.194528594221303558e-02
-7.178272970115390228e-01
-6.641524502304878563e-01
-9.574911393414427263e-02
3.561215967441817010e-01
-4.116854191065653645e-01
2.333009993253428449e-01
5.135233276491175669e-01
7.486824076528010574e-02
-3.707626421723163590e-01
-1.390036257478713955e-01
-2.095976589077818697e-01
5.325048893097684699e-01
7.072818408230444609e-01
3.625431598488708107e-01
-4.598953744388790121e-01
-5.062375213855603295e-01
-5.114642238347026637e-02
1.091998321867322375e+00
1.116715352607112466e-01
-1.683073342288483876e-01
-5.243911488278291122e-01
-2.334710032837477300e-01
-4.905812746185931328e-01
-1.408123712527366844e-01
2.214809328701347890e-01
5.934555707378044165e-01
-1.146489602691077719e-01
1.870214407839477719e-02
-9.085505721327569173e-01
-6.448467944200100277e-01
-2.921573398328283777e-01
-1.634877910973484838e-01
-5.950691338002810776e-02
2.268593488790150367e-02
-9.706932896331329497e-01
3.653821177828315281e-01
5.593032100048925814e-01
1.180596913817970467e-01
7.490262214605938329e-01
1.695313370612561987e-01
-3.349720082446261959e-01
4.884123201057763430e-01
-8.857121420062754602e-01
-3.088445831438271783e-01
-4.249977626043150575e-02
4.257805992771718784e-01
7.606266446829328398e-01
-1.395594156156264309e-01
-1.616502372933383003e-01
1.534590737678705186e-01
-3.946902573740725395e-01
-7.023987424885571595e-01
-8.216661677502641314e-01
-6.135621345927136927e-01
-1.300725056192897078e-01
-4.622259772302074465e-02
-4.078071523022580025e-01
1.890856736274523497e-01
-5.011943496671132925e-01
-2.115929700834386640e-01
9.652138004391014325e-01
-6.393790423709426740e-01
-7.391709779567153804e-01
4.726248345918994676e-01
4.208565380037361248e-01
-9.885803556689575222e-01
4.922097720489058137e-01
5.943038786335479440e-01
-8.413923345577617452e-02
-4.990506172028223997e-01
-3.818041883762913202e-01
1.020236067225722021e+00
-5.312262753719168007e-01
-4.532475396659282341e-01
-1.278945676890586858e-01
-4.218907741845918102e-01
4.549518333491830435e-01
5.277032068485525418e-01
-6.500389178162988557e-01
6.308766111676615551e-02
-4.539778799208011306e-01
9.119899266774311730e-01
4.777015896575527165e-01
4.009736753593540759e-01
1.849470277320321987e-01
4.840162773284284459e-01
6.981957346269466180e-01
4.454894170903006545e-01
-2.624077825456256896e-01
6.371404057754233019e-01
-7.449001111078550341e-01
-1.189360209502972748e-01
8.043609898063861507e-01
7.244994931976267427e-01
-2.765812996954662428e-01
-2.928927195048346976e-01
-5.967082296998866831e-01
-5.142524375990623620e-01
1.315041798703164844e-01
2.488907205537043699e-01
4.210370253243964633e-01
3.934853112443672390e-02
3.446022066325499233e-01
-6.039622253552966447e-01
3.931485270262548570e-01
-3.889598670327776841e-01
-3.335462955303901134e-01
5.426185351410067748e-01
-2.914783014460087807e-01
-1.071810045674885359e+00
9.414730556170834985e-01
1.212054915371984787e-01
1.124350730632907469e+00
-4.529180104703130205e-02
4.941487525467944120e-01
-3.121825961145988648e-01
-9.161454988795064355e-03
2.690353394952354482e-01
-4.782505564595109643e-02
2.410493403568484405e-01
-2.601789972365698561e-02
-8.735028427290364439e-01
6.406524000023653409e-01
-4.672774412749990947e-01
7.675588448666990082e-01
7.490384492295849572e-01
6.342335188769164800e-01
9.510320303543189357e-01
-3.739004754407451725e-01
2.136064669071024991e-01
5.053381802737033635e-01
4.535542130536013988e-02
5.082080689550577679e-01
6.748966828584992417e-01
-4.154079667913973539e-01
5.641857088771589090e-01
-2.748909943666119626e-01
3.259867989579481873e-02
-7.397581108201151112e-02
2.161116489176934802e-02
-7.867262351488084615e-01
-3.453371360446842453e-01
6.899078176329607182e-01
-7.912086976617158651e-01
-1.421729028481166224e-01
-9.190489991763717281e-01
6.410313968191566625e-01
2.595199195392312586e-01
9.639177975763253414e-01
5.446952915243056248e-01
-8.515219287935056336e-01
7.676736404364776778e-01
5.225368868296593750e-01
-2.333430020879763978e-01
-3.429434675021221790e-01
2.110120104237222238e-01
-2.292143006352753976e-01
-4.113502617521440641e-01
-2.346534473743399352e-01
-5.424344555361432230e-01
6.194711713804325059e-01
5.901242263332961979e-01
5.332391116228780703e-01
-4.890751199239655733e-01
-5.379468529481196137e-01
-3.007409962409950954e-01
7.285490244006611604e-01
7.634392280030872779e-01
-2.778788862477422628e-01
5.766427792729446056e-01
-2.369368328511666996e-02
-2.646656634997904822e-01
7.141710280442856718e-01
2.328821138887652020e-01
-4.772234123184193044e-01
-2.681133042457068544e-02
-9.280828622605178380e-01
-8.562900535696834625e-01
5.156737476672010878e-01
8.981856797042874208e-01
9.397035134265274703e-02
-8.345634572330223877e-01
-6.671470906559658909e-01
5.590314531196014514e-01
8.410699294346110078e-01
-3.266130049140714697e-01
1.874245391099887970e-01
5.454347506947928581e-01
-6.110298388976893591e-01
9.632961927547084580e-02
9.009065399259937046e-02
3.624301624514245090e-02
6.220833405191010523e-02
1.092450270508682902e-01
7.812296336863146229e-02
2.742809801143380327e-02
5.350565721607349751e-02
4.266897169711739157e-02
3.878135823027261536e-02
5.138000086608351946e-02
7.871761582741365615e-02
1.126463736578680042e-01
8.044136058653568455e-02
3.914412374318736176e-02
3.293513366459351749e-02
3.603248183195768839e-02
1.187455680142190523e-01
7.166356672965781827e-02
7.135440935453242484e-02
4.935365612575988437e-02
9.334202436234419198e-02
8.933904125665521889e-02
5.514542272549269319e-02
3.785789496651661284e-02
7.914058288501853167e-02
3.156455364587573698e-02
1.048355896647489571e-01
7.426222424006924394e-02
1.340486263922069654e-01
7.161430008438816885e-02
8.603587891710773317e-02
4.519842252502127150e-02
7.553176721089235879e-02
5.702399466081620877e-02
8.500284110037877039e-02
1.023175223891186758e-01
6.365775831543191154e-02
8.078621574161623520e-02
5.825947207170776437e-02
5.692453345898411399e-02
1.178025875491552077e-01
1.102209609968344273e-01
1.054722751949372234e-01
4.947041358162741070e-02
5.407096000287189841e-02
1.098427916919668124e-01
1.023076169155964360e-01
3.929990840432959730e-03
5.937279148963486158e-02
9.338901271343894028e-02
1.053991381947458478e-01
2.829265431810787379e-02
6.407027357366555653e-02
1.066797232783162214e-01
5.040006968822432348e-02
1.417735012185785404e-01
3.791818047362795208e-02
6.553027081950592303e-02
5.550099559929200926e-02
9.831089748052303234e-02
1.047067257837338700e-01
1.227540865320677632e-01
9.757677513901921729e-02
9.314500721076572620e-02
9.262440340435200425e-02
8.836210267577099264e-02
1.139844421566462429e-01
5.403866920670795382e-02
6.953402843249508435e-03
1.212497006485071943e-01
7.498889252571851183e-02
5.105454961642167527e-02
5.600021269983503081e-02
7.140375548246330473e-02
1.449823633865339467e-01
9.550838438794209684e-02
3.860329997050914591e-02
1.087243776000718781e-01
4.320373054028790044e-02
1.194715588858013267e-01
2.662981540628081567e-02
4.306735222679470426e-02
1.118711935791746603e-01
3.911547810270925990e-02
3.763632814328888437e-02
1.104350424967884825e-01
9.248729957946538738e-02
1.019188564867331559e-01
7.315373557904550350e-02
7.817540297708408525e-02
1.159147246030690359e-01
3.175944205121321307e-02
4.120264025779574180e-02
8.669769936676777200e-02
1.058088650774972744e-01
9.800669273673162651e-02
6.172863619485042391e-02
3.726103950490652905e-02
1.022221265484851843e-01
1.035965472069221155e-01
7.601186536542779704e-02
1.309478457842111754e-01
4.598326969000427616e-02
1.012350532145795540e-01
1.223480236083448885e-01
3.317591718712015886e-02
6.660733887787116669e-02
8.204908490922252495e-02
9.129800393845019513e-02
3.292606256639183521e-02
1.398366747314320480e-01
6.715491275292780060e-02
4.378033670002287603e-02
9.003346880625187620e-02
8.006643643671114419e-02
2.375429945108450611e-02
3.445002820375453467e-02
1.204916299660144102e-01
9.529567975944891467e-02
9.748057748083223395e-02
1.263972602856200944e-01
1.074543884268323313e-01
3.681983333521814811e-02
8.777267689344933621e-02
1.066255694752992790e-02
1.078137736553737847e-01
1.409688479684540752e-01
8.398849955744960849e-02
7.812958129198210866e-02
3.041596594615231935e-02
8.901884160335164775e-02
4.605244045167425880e-03
1.533328458676324890e-01
9.140297958803897393e-02
9.954604908307447542e-02
6.346980526756294816e-02
4.003235377812141421e-02
6.297863384418368737e-02
9.145033684976931754e-02
1.118392675708111544e-01
1.483386267096110239e-02
9.025051517884609409e-02
1.722800522966862549e-02
3.915949116171361238e-02
9.558702782788566776e-02
4.138431231299680851e-02
1.199818082756639731e-01
4.869119342540244311e-02
8.197436627287253696e-02
1.137667897339054296e-01
7.112570329639443523e-02
1.064260316806455997e-01
1.386612773068704729e-01
6.618301902038058182e-02
9.397054759386171130e-02
8.781659158989645053e-02
3.752980830207186796e-03
1.043845622327678607e-01
8.285349370782783829e-02
1.238263285811110198e-01
5.349719709126711520e-02
7.576561792469768686e-02
5.180853251969615852e-02
7.427356771184771833e-03
9.025334388632397231e-02
8.543485771164119336e-02
8.118655002788205399e-02
1.077984537160781991e-01
6.361415187789576375e-02
2.127182218056067331e-02
7.357004199241846953e-02
6.824220438957037671e-02
1.398070256831494551e-01
4.195996061986246445e-02
1.266277752493414344e-01
4.585208446600354953e-02
1.519049564243140915e-01
8.057095912335655863e-02
3.036378553679575099e-02
5.973631754695177959e-02
5.431105333027758109e-02
2.842535116724573957e-02
3.671808633807967931e-02
7.311117232098858498e-02
8.498671907077787191e-02
7.563377187657557843e-02
6.056526368561530871e-02
2.240173520101396837e-02
1.008221418528443547e-01
4.804605178136366755e-02
7.369724462756260808e-02
1.016139771127337194e-01
1.022407078401547376e-01
2.776853274485420811e-02
3.788295791744764052e-02
8.645718852344538852e-02
1.117632537586671082e-01
7.495587603063283422e-02
1.008102420341803335e-01
2.553082307716052560e-02
3.594091393167820475e-02
1.315030708541999604e-01
4.263700330975085662e-02
8.894414025157441894e-02
6.606416127989626907e-02
9.170980032073559884e-02
9.041219331301390827e-02
1.085961426631603249e-01
9.869396027817776626e-03
9.381573920042104997e-02
9.770558671337734036e-02
8.991219769554953389e-02
5.903039534603666399e-02
9.802434811296782680e-02
1.362127688078473148e-02
9.631712774921530329e-02
1.227685891317335243e-01
5.008785236524156137e-02
5.284875141023474138e-02
9.142012995037325507e-02
1.067727701134487256e-01
5.283676942237577195e-02
3.467118471496290211e-02
8.909448097259327348e-02
1.033324632590140180e-01
7.791957761692104578e-02
1.179283269747986168e-01
5.386639956305160765e-02
1.027790204327194562e-01
1.210891244321675581e-01
1.000461759857645128e-01
1.221110706894736608e-01
1.133220329914736979e-01
4.801875426427259369e-02
6.432128100028887407e-02
1.807673993816878016e-02
9.213331544864233891e-02
1.002786882840457916e-01
7.378707822359635571e-02
3.658152430357084622e-02
7.861889555546974773e-02
8.961233129857516799e-02
3.520638406496844064e-02
8.553354496340861979e-02
6.595469646834159483e-02
1.187685959951892134e-01
3.468631349930358099e-02
2.404901498001749821e-02
8.950990819904351692e-02
1.054327190832161504e-01
9.276388903149394849e-02
1.772047015583979312e-01
2.116032632847071604e-02
6.952586001511833202e-02
7.014661895288382132e-02
1.261581917321450419e-01
8.643504285245427743e-02
1.281950285370752340e-01
5.118600795528172737e-02
1.409069336296931152e-01
5.956804449128461076e-02
1.400178501130724673e-01
4.046250198666457437e-02
1.530197333214543820e-01
4.264342608714808552e-02
1.208827034608329076e-01
7.421702269577708233e-02
7.091522412198025815e-02
8.824869906432997180e-02
2.775215778253747531e-02
9.644900772778597364e-02
2.832375124234067648e-02
8.363099161981162044e-02
5.462252185067910382e-02
7.642083622916914787e-02
8.468054388394834209e-02
3.383198884256015393e-02
3.148138320572022725e-02
1.275950652156327969e-01
1.233891698657769015e-01
3.667576612038919714e-02
2.858544428177016428e-02
1.410189651085671791e-01
1.356598713641165299e-01
7.979109541535611694e-02
7.762144907485028777e-02
5.156925943044739918e-02
3.388751506072356506e-02
9.632742328832333278e-02
4.250722512022499927e-02
4.938709624457699593e-02
8.381521516604130417e-02
1.234820138045105847e-01
1.052294882666712783e-01
9.873955227151006570e-03
5.518309698109967465e-02
1.046694856249061611e-01
7.017699021274025062e-02
8.695222276594048727e-02
9.567973231262458245e-02
4.268701489937479915e-02
8.837051014683282302e-02
9.412272810738403495e-02
6.370993691632617639e-02
9.890676858200839194e-02
5.358042055411976062e-02
3.044733745664989291e-02
1.389188513848523265e-01
1.396789164536928196e-01
5.555627805449611656e-02
6.904412387010357144e-02
1.889244473644815028e-02
4.934310695697027155e-02
3.542542000844638855e-02
8.261195964322706753e-02
1.123212140566932360e-01
1.362386457969274878e-01
1.250945941533283812e-01
1.624327403734555364e-01
8.828552295221070434e-02
9.014491390939989579e-02
5.611247550878963736e-02
9.865488720961887448e-02
6.297186980291245850e-02
1.526578664918101513e-01
6.018065051221115763e-02
4.052419526543435402e-02
7.073380133999759845e-02
7.514771071344814035e-02
8.106593772632061934e-02
8.472152569772548047e-02
3.649219489951022882e-02
4.819534559488752173e-02
4.636588337679325295e-02
1.360451621809685430e-01
1.024721131388708906e-01
2.597437792314702398e-02
1.365483047975467601e-01
7.843664885256038111e-02
9.267776380719013052e-02
4.220913576917566939e-02
4.800183212659293874e-02
8.829362040040249215e-02
3.675884605075734057e-02
9.443013438043870722e-02
9.209071978632420163e-02
8.526126834541263022e-02
1.212981336475794369e-01
7.552768265123314950e-02
6.549445699593857417e-02
6.522961560022552674e-02
9.368796807963351847e-02
9.375849184623771468e-03
8.346504723328899977e-02
5.839400303562021499e-02
8.305430641284688997e-02
9.691272276183547640e-02
6.710139839862533373e-02
4.505045875067398287e-02
1.033065210222219032e-01
1.121006288937488188e-01
1.047546646330231868e-01
8.340718376268327350e-02
6.890250845674873725e-02
1.169010707007436672e-01
8.671059188788020344e-02
1.639104645099820345e-01
5.745445160394934553e-02
8.431687759615233424e-02
1.302656075418278658e-01
9.867494122282734204e-02
9.167876050008121058e-02
5.793200205413270160e-02
1.410949795334341950e-01
1.125688339211624450e-01
5.584356458389773403e-02
5.864150437304370411e-02
7.278887542912206021e-02
9.098613921649498226e-02
7.171330416723278867e-02
3.957323974789661580e-02
2.545942492800504914e-02
1.177701560802770636e-01
1.026065628581179778e-01
6.302550398363339357e-02
4.799149015328256496e-02
7.296416994984381010e-02
1.206201486945372298e-01
6.739675127678870781e-02
1.202194522222702899e-01
6.670625393429882588e-02
4.325263662881043830e-02
9.773228167879695338e-02
3.012536752094647011e-02
3.370181899844815199e-02
6.799787129123972818e-02
1.185998633354800047e-01
1.310694142668801798e-01
2.379296508656706527e-02
7.870996224874228508e-02
6.108276698487778017e-02
5.476862059878729455e-02
1.301394808569834582e-01
6.534106899314347239e-02
1.054016108176993594e-01
8.333588827558061074e-02
8.949318414216118900e-02
8.123399689357312103e-02
7.197205296636970118e-02
4.249212877531402532e-02
3.753391292567402615e-02
1.002734738028923517e-01
8.984835655874005844e-02
7.473369057775858249e-02
4.399336759129818947e-02
-2.635377738891830357e-01
4.993575116257225055e-01
7.499950891295190658e-01
-5.498336288072527278e-01
7.495246734148971468e-01
-8.194325684181661407e-01
3.543218126631669240e-01
3.635881888687306218e-01
4.138274538601518504e-01
6.190546365277168617e-01
-7.967095298205957299e-01
-5.909332568668682617e-01
-2.344008230677422921e-01
4.136903063202012065e-01
-2.766896535336006435e-01
-3.084881535758141058e-02
8.474903670135328637e-01
-5.705316299207064956e-01
7.645514551594898567e-01
-3.629800416128969864e-01
2.815560855125077699e-01
-5.754842394463789423e-01
2.614294863258050938e-01
8.530916024829237054e-01
-3.772206880010568475e-01
-5.964542719727887743e-01
2.107774600068385573e-01
-3.805537387242706737e-01
-1.978594724801255589e-01
1.397388411795048579e-01
-1.078385716381157072e-01
-8.580007939371331327e-02
5.286999254548195859e-01
-4.708124708015525850e-01
6.505497085842552041e-01
-1.127374060586120025e-01
8.524537566519584109e-02
-7.971053593702571993e-02
9.749321918920130781e-01
-2.649636049660316073e-01
-5.132903871158586151e-01
-3.680542332021987662e-01
2.522985081984073785e-01
1.439986097789489605e-01
7.285502645174869452e-01
6.407514956443982612e-01
-1.694617457187749809e-01
7.095384005784582948e-01
1.175511258546964477e+00
3.638800759398853057e-01
4.317889265983930747e-01
-5.827078820198087206e-01
2.978802484453495492e-01
6.618665030242837366e-02
-6.885075660782378204e-01
-6.786210432099774037e-01
3.655988754759652570e-01
-6.247599840711195451e-01
-2.232971914243992995e-01
-5.640152874384768422e-02
-8.841371297513450633e-02
-2.241748308012093127e-01
-1.077173531227194891e-01
9.961296715532773627e-01
5.439587602539396327e-01
1.042888231457102632e+00
1.424163001358504654e-01
9.999572558203084771e-01
5.525332016777013688e-01
8.121958883312093702e-01
4.907185159060117874e-02
1.003753966402578746e+00
1.042068745144332786e-01
1.064436919245144830e+00
-2.622512853547295797e-02
8.938523427298283863e-01
2.098602701783796320e-01
2.895094947196574231e-01
-7.047501158957155676e-01
-6.448489077000816305e-01
2.871930084442119169e-01
3.765054722665403530e-01
4.588411195929605335e-01
-3.947146462191010174e-01
3.976026386550960967e-01
-6.668733904802129908e-01
4.641834342351618958e-01
-6.840577974809733952e-01
-2.337882217644568217e-01
-9.052571517145829860e-01
8.735804024813077495e-01
-1.187292300567824865e-01
2.000700923751895510e-02
-7.748060010001067699e-01
9.088570322355565834e-01
6.349958831643179868e-01
-4.766122338448122164e-01
2.259115635312105852e-01
-8.272339531952654923e-01
8.950767142990490033e-01
1.933596166822326712e-01
-1.455647098747918367e-01
3.675957570896122850e-01
1.200637937552367362e-01
8.413685916343811577e-01
4.102458566104792009e-02
4.569109672304110803e-01
-1.637156087032865526e-01
-8.904115566751225064e-02
6.098547624413287460e-01
1.314816701846519831e-01
-7.845493515457330203e-01
-4.708268317637953060e-01
-1.671969005475757164e-01
2.571814956167542410e-01
-4.795573890575282605e-01
4.230557120800715887e-01
-6.503154957320919083e-01
-4.202776572744501560e-01
8.597775052422516051e-01
-6.611053000678509539e-01
-9.456711600804338369e-01
-1.035541888311970748e-01
-7.282340589865507474e-02
-4.367306088128992264e-02
-5.443429023823789237e-01
7.359710512499174628e-01
3.827283565833030088e-01
3.770183928716741573e-02
2.937861616211558946e-01
6.125422962353576327e-03
-4.698967781680128408e-01
1.032438715515335614e+00
5.485021735180840574e-01
-8.836200466794686958e-01
-8.227749519506408760e-01
-4.692018519333620574e-01
1.260333942935211449e-01
4.683774963568537730e-01
1.014063836204938784e+00
-6.010520889044019821e-01
2.558457647173640881e-01
-1.341376116766992976e-01
5.360685756886115483e-01
-3.630435441547818498e-01
-5.558164953063545743e-01
2.924639139917295516e-01
9.242085971273871214e-01
1.420386901258910151e-01
5.289885070290168967e-01
-6.423117371717340651e-01
7.587696855315306799e-01
2.128622571661187568e-01
1.875437054205989218e-01
5.987386399691696504e-01
-4.808072675263101031e-02
-5.330397258013737094e-01
7.129697415266218058e-03
6.174291683941999231e-01
2.228859727217003261e-01
-9.136828222102071351e-01
2.605020387087485512e-01
-8.412798612165336420e-01
1.156886331361688391e-01
7.084501065224678706e-01
1.252041692915723814e-01
-4.967375831694419847e-02
-6.546558088781944118e-01
1.260017106375007634e-01
9.462020425385012645e-01
1.286117852733909828e-01
-8.047631602212091950e-01
-7.409966314634884865e-01
8.180220782281328873e-01
-5.987161002190516390e-01
6.649191627148084427e-01
9.139695495722895968e-01
1.709810541835800612e-01
-6.968164622423659305e-01
2.039162880117003085e-01
-5.296530917519176596e-01
-2.973252733077745291e-01
9.974969582340486030e-01
2.227944452722314117e-01
-2.516765545244922797e-01
-2.728518279565135263e-01
-6.672632802086718717e-01
9.692421539100004590e-01
1.694819394480543973e-01
9.428911384310508792e-01
1.339161674689848779e-02
7.099942066240640115e-02
2.567861572120772040e-02
4.479076962089847402e-01
5.291913316455519878e-01
9.388021751094287604e-01
-2.782016141243887075e-01
-1.879726542691599334e-01
3.772662324843077952e-01
-6.441091145653369265e-01
-6.265947916036317400e-01
3.251349804718576819e-01
-5.002136641039365283e-01
-3.132480280108637660e-01
7.252912088078911079e-01
4.076531944706500155e-01
6.302032875432858061e-01
-3.961562612667787198e-01
-1.414865626071505900e-01
-4.191458981347113144e-01
1.527702453866779386e-01
8.565963418293656151e-01
4.430043794230019705e-01
3.569682022703711821e-01
-3.165820979167855986e-01
-5.627153613159600054e-01
2.965358360536957671e-01
8.364370960452635062e-01
-7.002704039393153890e-01
-1.040469254417208250e-01
4.616516587727361731e-01
3.517786536709104905e-01
2.164278670835391993e-01
4.262095486012589252e-01
6.394812483179433960e-01
-4.916203887530857242e-01
-1.960478869404124747e-01
-5.428252285718752068e-01
5.113148730673245518e-02
-6.647112554113016047e-01
6.349731501368660602e-01
9.820723411437828343e-01
-1.013788697354742752e+00
6.347122060462646598e-01
4.276728432270441860e-01
-6.346276981370733150e-01
-2.815054978720542556e-01
7.426062480868824700e-01
-6.918878927156456582e-01
2.534663048695539600e-01
-4.280034241042202092e-01
-7.264314265078456456e-01
-8.582276981876023614e-01
5.519255712477146858e-01
-7.353275184717379398e-01
7.406040245330134386e-01
4.995417846940650719e-01
4.598235541926551373e-01
4.704614694124292784e-01
-4.747097364691855725e-01
-3.068250253258320015e-01
4.074905232815496103e-01
-8.611489206940471375e-01
4.536329264575610365e-01
-4.408060766007123044e-01
5.578696977382746613e-01
-4.429828358687559198e-01
6.827139213805167861e-01
8.818805269289403670e-01
-7.408672601852964168e-02
-6.488827040896106846e-01
-6.065233585326988974e-01
2.487896691957479367e-01
-3.861085510581834246e-01
9.766833736042399572e-01
7.546003276348067779e-01
8.875282034978240198e-01
-8.362557092574539330e-02
1.697252763226401728e-01
-4.801796282535976124e-01
-7.515311337314852791e-01
-9.331557681792062020e-01
7.575432930542734811e-01
-7.938822923857166147e-01
-6.729997483220426235e-02
2.235499702619775098e-01
-5.163553647662023627e-01
6.713722425586599041e-01
3.394514273098229173e-01
3.199151507859656629e-01
3.343105489037594413e-01
6.956710306308763192e-01
-3.652261304344978643e-01
1.690232921800433608e-01
-7.514806696928192364e-01
5.404172114278590344e-01
-2.500128499405696592e-01
-5.349366339474634913e-01
-3.308949176739843789e-01
9.143229548070875845e-01
-1.320243724682710618e-01
6.782079475340747621e-01
-1.970534094925271984e-01
-3.443701051157208037e-01
-3.859715278141191419e-01
3.892864787018147643e-01
-7.777240815464029344e-01
2.420511082017631488e-01
5.079485074296755664e-01
-2.827098716484280350e-01
1.981295537874797896e-01
5.068121457239498362e-01
6.956142148633449596e-01
-5.261031212238592714e-02
-8.904683078180604117e-01
-2.106716463110406001e-01
1.327184824405991947e-01
-2.743234797125496116e-01
-4.241242287052691684e-01
-8.165946666579018132e-01
-5.269795603683652407e-01
-7.747947540973748604e-01
5.628541637971185355e-03
-5.326375018707687481e-01
6.266971259607101441e-01
4.973552814236848474e-01
-2.525088101009034247e-01
-1.352068987987642967e-01
1.008386274587046216e+00
-4.057482792323749976e-01
1.008231157348986606e+00
-7.552744424468318396e-01
8.262176559231479978e-01
1.161035384093556555e+00
4.906454598545498258e-02
6.129587688482315277e-01
-4.477796264739600240e-01
1.044171254727628284e+00
-9.789639598474964011e-01
-8.459425207895136800e-02
-5.120012997906330243e-01
-7.763105968451144978e-01
4.580877114289079732e-01
5.631378477072077615e-01
1.075595918726246936e+00
5.694421058592302742e-02
-1.006946096181726702e+00
4.818260149143775983e-01
6.256805485144697476e-01
5.632266835914594427e-01
5.392599322217628277e-01
-5.805107807370095685e-01
-1.300193981143172584e-01
-1.507245622143291684e-02
-7.255722591357325335e-01
-9.937289376707567068e-02
-1.073631782592272960e-01
8.516789134426850927e-01
7.463873640330556114e-01
-9.177307615992696954e-01
-2.913016001149205600e-02
6.499365239877947786e-01
-5.976528009412980236e-01
-9.556176861603793427e-01
2.645480451128472410e-01
5.904288540085879111e-01
4.579412965601969282e-02
8.418304275858861097e-01
7.003979827585965490e-02
8.090009841662533507e-02
4.577367593306719273e-01
7.928560384419264251e-02
1.775956667402228684e-01
-5.833427158839361581e-01
-7.756834438176826163e-01
-3.743870072525680714e-01
-3.445777565883106908e-01
1.211938575691816206e-01
-7.750025968038768420e-01
5.314143401456498106e-01
6.998218250229679138e-02
2.799454832890095335e-01
-5.010053013345221462e-01
3.030796788579313561e-01
4.081135629130532294e-01
7.632067104056075024e-01
-2.761945037041779738e-02
2.782889353016855805e-01
3.222057680562568360e-01
-7.404896467628854229e-01
7.924555395211444475e-01
4.200945690540018318e-01
3.141204641282361321e-01
6.044708627611787843e-01
9.594528061701039778e-01
-5.704490307115507308e-01
3.931279538077651070e-01
-8.834006304777412000e-01
-7.456525849436210773e-01
2.685674234271218791e-02
-2.298848479680743739e-01
2.534484907525745290e-01
-5.908118169679708875e-02
2.722017749898166250e-01
-1.087715215499137633e-01
8.336001750827247703e-01
-1.113221333699246796e-03
3.786576046555116259e-01
-7.473950345027308151e-01
3.169408196179563930e-01
8.474170682805384214e-01
3.189797363524742857e-01
5.910651165743577851e-01
-5.226602371340663966e-01
-4.690682375447972063e-01
-5.644195990669450547e-01
4.641362922589772344e-01
1.345009232767334917e-01
-6.162845666630780705e-01
9.911858993672230111e-01
3.422782594677177270e-01
1.047436586056424090e+00
-4.201537213860457864e-01
1.265359991184457633e-01
6.971067342641081854e-01
6.135057594745538800e-01
-8.277552545411308305e-02
8.172129534061661760e-01
1.246551392002273051e-01
1.114108278640909416e-01
3.406127663597022792e-01
-8.644971825849946667e-02
-2.728179157967526858e-01
-5.790238506041351929e-01
-7.787462936307997241e-01
-5.468809266360317167e-01
1.811815164050088744e-01
3.519556363403243404e-01
9.423995004159086974e-01
-4.325232599663412780e-01
-8.591543886115776685e-01
-5.585901669002145686e-01
5.209910741695248371e-01
-4.147139695636051226e-01
6.893065039433416974e-01
5.491186210395178069e-01
-7.022787034360687963e-01
1.076479677946779567e+00
9.280781862229735557e-01
5.232824602633984190e-01
-5.852768529986400736e-01
9.082971200333211925e-01
3.760006440182454002e-01
-4.965486733398247199e-01
-8.134977680717530024e-01
9.404423520265893233e-01
-7.428157671631895331e-01
-7.469085273610530373e-02
-3.911647280353664630e-03
3.579785032916155130e-01
-9.907063716788025443e-03
4.119274827715087572e-01
1.085570007130957082e+00
-7.050713343203115491e-01
-4.124208654202982660e-01
1.432770768937121353e-01
8.420738146629418441e-01
-1.882151509048438642e-01
2.374435226484633010e-01
8.376784807187660498e-01
-2.851545777001280313e-01
8.277379118595353802e-01
8.640728667135502139e-01
-1.069571585166913114e-01
1.920300668220135398e-01
-4.473892724586107650e-01
-4.700810144545852221e-01
8.426118184468955885e-01
6.488157690953036960e-01
-2.353301079670494234e-01
-8.645281640767540354e-01
7.553396163531012064e-01
-5.046044252285252218e-01
3.387703338024453115e-01
-9.884895268984932315e-01
-4.253869643110672616e-01
4.776085979576605856e-01
3.792431916503564149e-01
-6.054012182480389415e-01
9.635947085655841571e-01
1.054119933160779565e+00
7.337958224411463837e-01
1.285868363408136095e-01
-2.794650849953996818e-01
-6.416617752109031736e-01
4.191814056381879539e-01
-8.873718584492090722e-02
-1.115683646518684929e-01
-1.869287813047332825e-01
8.797970705046065376e-01
-8.756151029127877683e-01
9.904504690704278858e-01
-1.298692135810730064e-01
1.024511066855728070e-01
1.022837724694701800e+00
-4.179624445480261685e-01
-9.600569381750211073e-02
-5.154391350058918908e-01
-8.181764019676844857e-01
2.133550031625002230e-01
7.421087488112536323e-02
6.074191527769098181e-02
7.222553094333752921e-02
3.861930668754096074e-02
7.905819302171598895e-02
2.314320270860787537e-02
9.225744591416153162e-02
7.470970243274997757e-02
5.275324730499631604e-02
8.855277561089569538e-02
8.638864109532851110e-02
1.444965111824910720e-01
9.986497745922903735e-02
9.135017684831678308e-02
9.507679108575664562e-02
7.164395824336985963e-02
-1.907682817797209593e-02
8.777839487277760977e-02
1.095889906925940072e-01
1.078634709224251913e-02
1.018177048703027415e-01
1.579810344589627907e-02
1.392444914538939760e-01
6.244002454462673629e-02
7.472002770141338013e-02
7.498518928131064909e-02
8.511552075747709500e-02
9.526257490651576787e-02
8.070651155930186338e-02
8.515594543365803681e-02
1.484962100335892599e-01
8.394134241287397324e-02
7.773037881161848350e-02
9.280761548901968194e-02
4.449357213613241296e-02
5.355530631639177780e-02
6.545974093266154759e-02
9.573514929080875757e-02
6.497258346182054056e-03
8.810102012155744677e-02
2.453182230045776457e-02
8.303614939907115466e-02
9.112853807152207497e-02
4.637989573239191532e-02
1.151405511076753450e-02
8.802309695267399037e-02
4.243059480886374191e-02
1.027572776645868380e-01
7.474539199122713640e-02
9.137297455096864141e-02
4.459447755066432706e-02
1.157134085031062548e-01
5.489576467026949236e-02
1.037098547519294534e-01
1.499146700172252489e-01
3.191724091782395523e-02
1.451168136365637573e-01
1.026927144784687412e-01
7.827718561424623633e-02
1.134111365925169618e-01
4.129543076833971232e-02
8.465333798683803701e-02
1.324507100046056485e-01
1.546598466165892936e-02
3.896563591924885606e-02
9.643388462717671084e-02
4.700229944815892402e-02
7.863393276633542928e-02
9.483879343809968610e-02
3.425270143218645674e-02
1.138131056874766567e-01
4.186129454286095092e-02
1.297559296178966981e-01
7.597966835911934558e-02
9.822135371489271183e-02
5.575384559211199464e-02
8.910513455728859278e-02
7.780679843662303974e-02
9.341552795310897883e-02
1.201435896645985796e-01
8.203843800301591216e-02
6.467277098232557253e-02
1.195659439145132785e-01
1.103931942469252026e-01
1.072890212529444137e-01
1.107283238425596922e-01
6.398385455413610479e-02
9.117728021619019019e-02
1.041526492370694612e-01
5.441920730783681576e-02
5.729571280722627752e-02
2.147542941697946559e-02
1.080214828171195407e-01
1.015388756533465997e-01
7.857780886164858480e-02
1.048078167625941665e-01
5.516365894309402385e-02
1.260472839696698266e-01
1.306932964375908668e-01
7.670185526199850556e-02
1.065913478759910327e-01
2.786841585789489109e-02
1.011706004258238478e-01
2.528888453583440221e-02
8.009361410601341380e-02
5.799730607543170796e-02
1.314783196278375421e-01
1.173028789956619411e-01
1.189507541204960252e-02
9.586087111102191416e-02
9.595777036277106098e-02
1.240359187881066583e-01
1.236596788424545179e-01
3.576710111616027143e-02
4.230927083366049779e-02
1.072673810310001141e-01
5.717945825174127611e-02
1.301228954750119904e-01
4.246204964900665568e-02
1.394348008895590074e-01
4.824982332867275292e-02
3.319897782822750498e-02
8.711437045125790257e-02
1.339373436035301013e-01
7.436845746716125305e-02
1.281227921778843037e-01
9.768122083198095551e-02
3.883305220115624429e-02
3.153313302392427020e-02
6.949015635906430344e-02
8.954242526903458121e-02
6.050818135658017627e-02
8.625022894481923497e-02
5.464447762152925547e-02
3.820198632641855913e-02
6.216261374170616028e-02
6.282024791166379574e-02
6.406678536866604323e-02
6.488917291966707357e-02
1.124564475552800868e-01
8.483125165734888007e-02
5.561880136471974989e-02
8.915220082290380155e-02
3.532401119399605771e-02
1.009450365232368585e-01
2.740992430903832835e-02
7.239119771210676679e-02
1.051345563994709742e-01
8.174549640324633992e-02
9.663289810919728495e-02
8.516348870280092409e-02
5.551251789773276740e-02
6.964616766634239287e-02
1.253402305718547272e-01
4.558735572167430666e-02
9.244202673667008263e-02
8.462463670651232395e-02
1.113065000867797388e-01
5.389272229668237713e-02
1.231712162855510273e-01
1.124248755891487095e-01
9.435705586638222508e-02
9.647519759401244899e-02
1.235583172141746372e-01
6.639325806821985698e-02
1.125183715395688816e-01
6.698190920218195787e-02
2.940680096088046577e-02
8.824678470143755560e-02
7.935225816454348491e-02
1.127899636208067602e-01
