9.720405281488268823e-02
2.189090807740231015e-01
5.088123019872187874e-02
1.744120535617884604e-01
-1.354752415785219211e-01
7.085496917625010160e-02
1.398093312711334024e-01
7.029449692464037613e-02
7.345861004865279764e-02
-2.777801677220914645e-04
-1.282905965249281910e-01
2.104499335548370292e-02
-1.076104241633794173e-01
7.962329955252542280e-02
2.420928480148592243e-01
1.270780983524241459e-01
-1.330132701463426770e-03
2.900328886342278673e-02
-8.191400533329395994e-02
7.400188242452779286e-02
-3.865994096828997972e-02
-5.137930806650121973e-02
6.410613340596182930e-02
2.090238284311886630e-01
3.215289077952813990e-02
6.267174357689256348e-02
1.005775719267597845e-01
1.472100183752459435e-01
9.368366861497501308e-02
2.176485820771276170e-01
-1.975440970542197139e-04
1.741574911157343641e-01
-4.088411078120809256e-02
1.315051396178801291e-01
-7.333115994236855117e-02
-1.045262250377726326e-01
8.499652011119211703e-02
2.210320523560888595e-01
2.834750408665327459e-01
2.481584583353498852e-01
1.209822581805157365e-01
6.568490971711669901e-02
9.438620643691862655e-02
7.741375663537952700e-02
-8.320675516677214500e-03
3.031113708488608061e-01
6.653274972181399960e-02
1.061599811009049238e-01
2.212445591520554866e-01
1.339881108837170098e-01
1.083646853498416995e-01
2.165450403851933714e-01
1.851415856408629990e-01
5.973424981626841018e-02
2.070712997485910645e-01
3.067359814003928209e-02
2.404869365979713236e-01
6.026104848099706618e-02
4.501965877970259822e-02
-1.186113313979214601e-02
3.050953472782136355e-02
1.736199629727720462e-01
-3.475001885715453542e-02
3.135019519157432599e-01
6.755315786137260081e-02
1.981697831968808610e-01
-4.241784690373787137e-02
-3.551103213565670602e-02
1.156926161652397783e-01
1.219949763127193831e-01
9.245270775469560665e-02
6.411351277442361996e-02
1.501058843588359837e-01
1.011843980045661062e-02
-8.161724430206188097e-02
7.508942959278150364e-02
2.049361031570315905e-01
3.418831970970440115e-03
-1.028120395741358162e-02
-4.892538998628695457e-02
3.118001151786337077e-02
1.090299614155429073e-02
9.413623761531322853e-02
-2.411981096195868757e-01
1.644329816911691278e-01
2.524175283333051634e-01
1.403106845498304223e-01
-3.310748217644716301e-02
1.557657137023630289e-01
1.745574078958587461e-01
-2.942967344992752921e-02
-1.512420102157069346e-02
2.240068662859478477e-01
-2.613663923266879713e-02
1.256230645591938644e-01
1.621163270215627006e-01
6.898334261218255770e-02
3.302370056035255352e-01
1.420628248900750734e-01
4.076583529145148821e-02
-2.977157159547061394e-02
1.104855503278199119e-01
1.630164854413203857e-01
1.686463616064944326e-01
1.519193050119466981e-01
8.937623406989879393e-02
-8.013090242808480756e-02
1.120251039722145181e-01
1.870529550798200047e-01
6.491821624277932523e-02
-6.257056905107881428e-02
5.293875287833448712e-02
1.797302059568611776e-01
2.036521468889612163e-01
4.035729757498856402e-02
1.032611058524965236e-01
1.333710307876984080e-01
2.113875388221645168e-01
2.098972685535689386e-01
2.178398719803634892e-02
1.105771718657779790e-01
-1.265740758869481342e-01
-7.177019103110862663e-02
2.164637400960762181e-01
7.908473995111853228e-02
1.210090981948762634e-01
3.019434780266814222e-01
3.617731085129478885e-02
5.934791515351721392e-02
7.871539252512764484e-02
2.554055545581436493e-02
1.625353951687296683e-01
-5.804315233594108114e-02
1.422301028646211218e-03
1.931480013761924241e-01
-4.048963308832428942e-02
9.580812450030257166e-02
2.249420838325155436e-01
2.123210858099649767e-01
7.245419572289690802e-02
2.470329201973042177e-01
2.531831349775476858e-01
1.274537204078844965e-01
1.214125022786641250e-02
7.864570204148645105e-02
3.660721242311893997e-01
2.758272129921836013e-01
7.265524783986153368e-02
-1.024165679128246353e-01
6.880970846880600511e-02
1.780901915262811386e-01
2.293590987770359468e-02
1.632280173743736740e-01
1.224288348821498812e-01
6.306349118256412978e-02
-7.423901618096898081e-02
1.033317606445373626e-01
-2.601484985310087428e-01
6.163946698507671851e-02
1.520274560864851021e-01
1.676392482627599850e-02
1.482272139837813307e-01
3.156155105004913031e-01
7.481153368867995979e-02
2.394321206725814055e-01
-6.686868588452039852e-02
1.815751353494157033e-02
1.578405221939484515e-01
7.585130845856905002e-02
1.939498464395098543e-01
7.237172492828387871e-02
-4.256426476306756496e-02
9.131667802988482907e-02
1.683903241407382345e-01
-3.433094249313614621e-02
2.975361400436341008e-02
1.113347916973151941e-01
7.676738304429889248e-02
4.685135025392583169e-02
6.296066232654110029e-02
2.304855087027165017e-01
5.509868598175829413e-02
-3.260109751840607750e-03
6.996758942928721359e-02
1.635596091314706624e-01
1.453930821378335292e-02
7.567763637033113333e-02
8.772945752191020630e-02
-2.927653467974186685e-02
1.315077738844425137e-02
1.469122714658270545e-02
-3.755950289166497258e-02
-7.027152673143201300e-02
4.593292816891220154e-03
1.154316720422575576e-01
1.248299106761662086e-01
6.160632207344500511e-02
1.309361099002194773e-01
1.479140638234011651e-01
1.221106898397370938e-01
1.422009169160734499e-02
8.780533255319568353e-02
1.583079489538519874e-02
1.846888912279151529e-01
7.242227569199903570e-02
1.393271803619918758e-01
6.373022688377924516e-02
1.837880155328173448e-01
2.091075433838952002e-01
-1.216676947949353049e-01
3.537016860177545630e-02
1.242307343083606450e-02
1.579578126894015944e-01
1.532138794388070990e-01
-2.145903182906674922e-02
1.086295469065494956e-01
1.849431411945690051e-01
-6.476077013084431677e-02
7.594064528909275080e-02
3.805029079794230995e-01
1.096281885838559789e-02
7.449584473815151764e-02
-7.229323746896973435e-02
5.991232661328831088e-03
1.961065373704392878e-01
1.280834517432811737e-01
1.244192238634363179e-02
1.148543318927071205e-01
7.113855073970644372e-02
1.669520965224741138e-01
1.976190408908418128e-02
-1.230333839654795258e-01
-8.146994458223008606e-02
1.734668363596294227e-01
-1.174509622980105666e-01
1.961978621014202062e-01
4.690731627412610127e-02
1.590124797876885654e-01
1.680131979143249521e-01
-2.709223224055262724e-02
1.647948249475991167e-01
5.378254289310019365e-02
5.126067359224432962e-02
1.462286249512347869e-01
5.561728846801361481e-02
2.374774846730834388e-03
2.617157452180447069e-02
4.046327187292543537e-02
-9.379615272196308029e-02
1.401825891354506470e-03
-3.122138866827905979e-02
9.759437407658083652e-02
1.355858430304056617e-01
1.612432086888963001e-01
1.343449675764871176e-01
5.441188386471128291e-02
1.184181280010587617e-01
1.731925741354986004e-01
1.548278628652457328e-02
1.071560985912064917e-01
1.728605638997207372e-01
1.579360547549825411e-02
2.355209861292653917e-01
1.611497448372803953e-01
5.878002331534427916e-02
6.355294189026619578e-02
8.903762810165065378e-02
1.613101606627387330e-01
1.265577297566675141e-01
1.168007004794742454e-01
1.565242825470507526e-01
5.874545792584205672e-02
3.005331949158768223e-01
-7.481869074568416045e-02
2.824443370155216293e-01
1.405019527090620168e-01
8.448397211794930750e-02
3.266995719221885142e-01
1.211032638644728293e-01
-4.771573007842799807e-02
-9.599888603643122464e-03
4.321454993970572089e-02
3.011806029776328830e-01
1.749205245387597529e-01
8.846431692835268756e-02
3.824196014165309743e-02
1.122365945404424914e-01
3.057691642493761131e-01
-4.644478863261078394e-02
3.320079657581451182e-02
-5.798395750105134194e-02
1.390134876465724534e-01
2.286679402950754780e-01
1.728220000031459591e-01
1.974110348658390524e-01
-1.155908854434571781e-01
1.581581633992881764e-01
1.275204580919814812e-01
1.007553160900173661e-01
-1.685658591058991629e-02
1.368723042197070028e-01
-1.817072075311814555e-02
9.135828372654364316e-02
1.501496683595531789e-01
-1.434414353959108379e-02
2.108970502897041660e-02
2.286471459836355025e-01
1.140328404096074832e-02
2.961973707209512585e-01
-9.003760400504820516e-02
9.492117683875755940e-03
1.213958863306756342e-02
2.460441324838588684e-02
5.945710693506106592e-04
1.988172865892617880e-03
7.022206242782060015e-02
2.227567750656683498e-01
-6.014335573175047522e-02
1.383041300304700405e-01
1.367208967476122444e-02
9.699503152811707329e-02
-1.546672370293026427e-02
2.008842873741416568e-01
6.164624546471369343e-02
-5.268602082636651002e-02
2.747707149215414812e-01
1.726506524410763577e-01
-4.662460605705014138e-02
2.482214544632225517e-01
2.124110200263524539e-01
8.310418175844096200e-02
8.755247054183259992e-02
-4.877109856998237264e-02
1.958769377693263536e-01
4.402669777033312026e-02
2.556145365967940064e-01
-4.574871720989390211e-02
5.361659340443478833e-02
3.405075196932456083e-01
3.446021308740698091e-02
5.808160974248534336e-02
-5.036058480933725684e-02
1.443535998162670808e-01
-2.702063048746067286e-02
1.739324642290793199e-01
-1.134916428236654173e-02
-1.913351526208480896e-02
-3.705211665070956562e-02
-1.345242208238753845e-01
2.748999274415004912e-01
5.514985195008870189e-03
7.062944407533708335e-02
-1.072785896029828101e-01
1.746893449658094011e-01
1.346751123847968745e-01
4.369013816612529744e-02
1.838598584182527806e-01
-6.817410966421202922e-02
1.169944113168678163e-01
9.632291819876964700e-02
1.313931946435861198e-01
2.638483259747476106e-01
1.047501824758290956e-01
1.874068653173989185e-01
2.050135717909436217e-01
1.205758361775681464e-01
3.301885239261470595e-01
1.071972149670705199e-01
-7.730364616973246783e-02
1.133943830279829645e-01
2.053206280444959675e-01
-9.571108461702282355e-03
1.886618119882327305e-01
-8.851308174963967712e-02
-8.141897544446331791e-02
1.496939851529195953e-01
4.521637457670997506e-02
-1.457886303072832013e-02
2.894099745204062324e-01
5.199523169586454940e-02
4.425958704252316162e-02
1.166272216859394334e-01
-4.100892879646569900e-02
1.213116300360351091e-01
2.066757054070515465e-01
-7.634860098189455435e-02
6.959427550837946064e-02
2.398185586483633780e-01
1.256636135819560185e-01
5.175358471180099146e-02
6.030877813738053095e-02
5.145997566199918272e-02
1.288883755537723053e-01
2.000320252087674222e-01
-3.621416035876549172e-02
9.743623666859904664e-02
5.964771920646440295e-02
5.060952616860980857e-02
1.880533584852700224e-01
1.099588897843595536e-01
4.213580499894226811e-02
2.353726987554127792e-02
-1.623350369509561908e-01
-1.696386047288044041e-02
8.211982513276133711e-02
7.561081788969854778e-02
1.363797105562896406e-01
-5.593229882095140937e-02
1.252756629595310756e-01
1.817179970100543662e-02
5.633224030808138549e-02
6.088463221853471913e-02
-1.050657208394542574e-02
3.829158310871114829e-02
4.618934150350195722e-02
-5.699015016068417760e-02
1.460458357797392859e-01
6.648865639513831804e-02
3.475387960854666725e-01
1.256463617422194368e-01
6.800717064625817765e-02
6.844071437219681475e-02
1.089320711247908080e-01
1.077472230638450851e-01
1.115753078765700373e-01
-1.089366959692583958e-01
1.535943348117725649e-01
2.140192157730367584e-01
1.657962586544383943e-01
1.357988983641464920e-01
1.457930129447919110e-01
-3.934993653518761847e-02
7.954724135124047191e-02
1.073039762691565396e-01
7.034721441864219549e-03
-1.055757298037750536e-01
3.176747649855355404e-01
-5.757859698632335210e-02
9.738231242600248194e-02
2.639824058986319777e-01
3.637442114718168751e-02
1.894302565262416804e-01
3.810290065685288663e-02
2.326596175341148487e-01
4.562818437984042519e-02
7.332866510364002832e-02
1.178062845398181457e-01
9.926950039794335545e-02
1.535893498563689619e-02
2.073895944741640796e-01
8.359717193188988260e-02
7.198861659962524362e-02
-8.277552755978416499e-02
6.180720842501961909e-02
1.772700282123455540e-01
-4.300279925134513348e-02
1.381785603473108526e-01
1.674441298364481162e-02
-6.545799998256968122e-02
1.258297962610270271e-01
1.795666143628880246e-02
1.678398350812447259e-01
-1.851326751315403307e-02
-2.497374455409431121e-02
1.398971560849796014e-01
4.864617586385150405e-03
2.777986686941827724e-02
-4.412457609722801599e-02
-7.990988969790066565e-02
2.667217950926409342e-01
2.548681265268915030e-01
2.359227456626336594e-01
1.283186972967968187e-01
-5.963021544610468128e-02
1.641407599584522592e-01
1.076811663780151695e-01
-7.141470545125974678e-02
2.867070316115233330e-02
7.484600369767732686e-02
1.429345900502573263e-01
4.304240922876081260e-02
-3.458068449958837109e-02
1.069410774710165823e-01
3.450781691128386175e-01
2.168554925497318819e-01
-5.380151007065397256e-02
-2.030135319657386250e-02
1.293839186957219251e-02
1.428701514474690903e-01
4.787889038411268644e-02
6.767568225111955660e-02
1.926994143051124209e-01
1.163868267150284935e-01
5.357944147035442056e-02
2.386517915515384836e-01
2.563432996718637003e-01
2.843167053458650270e-02
8.418949528681379801e-02
5.493765496560137906e-02
1.556847507336885372e-01
8.066555902442690273e-02
6.769181845555433119e-02
-1.833885120720009365e-02
1.498101568945715834e-01
3.411011929060116937e-02
1.687421927147106093e-01
3.655917356653422268e-02
1.842873019848766947e-01
2.963848107801749787e-01
-1.050321598043153226e-01
3.443709816152952241e-01
1.488422423747683132e-02
3.442178851061087341e-01
7.217843596014635044e-02
-1.224379986281558391e-01
-7.729231235072639428e-02
1.549228365150544517e-01
-8.275948671452749983e-02
1.572773854754470346e-01
3.125182801353704187e-02
4.180318769225424558e-02
5.860165304261658048e-02
2.047622153930215294e-01
7.655206439004016983e-02
2.939878332132966898e-02
1.401518020909789386e-01
7.634525532934778591e-02
1.777277287646059079e-01
-4.186830276724669286e-02
1.038557740685824710e-01
1.453859154234325435e-01
-8.524561757781393134e-03
1.092495655575797947e-01
9.783784305362691613e-02
5.042946833121076528e-02
-1.620071425173653240e-02
2.161784532877067955e-01
1.198968579270925094e-01
1.018417751642066715e-01
-1.971389369872768305e-02
3.295279556550256145e-02
-3.371613948647989717e-02
1.405684555230132249e-01
-2.952089356489939753e-03
4.841970469315912129e-02
2.876117106587816608e-01
-1.240026894696703852e-02
-2.830625698864594475e-03
1.574845866139224504e-01
7.476556884508395173e-02
4.038910811284665003e-01
-8.944487263740438787e-02
7.831591788603628479e-02
6.862660048257208933e-02
-3.611239965237794669e-03
4.200056158745946178e-02
9.876999879394125770e-02
1.449866791820770273e-01
-3.318111561717451696e-02
8.318364537660859204e-02
2.167135093575437987e-01
3.336606293719536487e-02
1.170002033992984802e-01
1.191292119338351746e-02
-7.465421098694330349e-03
-1.736964175307706415e-02
2.624709870413178825e-01
1.152285694994084481e-01
2.672906558398480126e-01
2.035862976922514778e-01
6.035965196352089529e-02
1.155430932234505492e-01
-8.396639249603515820e-03
1.222913414224012507e-01
-4.370057368358248873e-02
1.204229628165815191e-01
2.271836356953003955e-02
7.505882423621237920e-02
3.240222915549191562e-02
7.044215344582645255e-02
5.798922820168590786e-02
-5.467934960808781830e-02
2.096142182142534394e-01
2.769464501374933052e-01
1.038041161847669258e-02
2.890743520947041539e-02
1.857407609245257940e-01
4.888829305128154779e-02
-1.352371033733728578e-01
8.286342334259172437e-02
2.441441430407634283e-01
1.958265718665252314e-02
5.262578294905258247e-02
3.443490317019052421e-02
-4.078478426730507145e-02
2.498695076253385494e-01
7.400002122191325082e-02
-1.035817097313732615e-01
6.538122198146426034e-02
-1.528216004589341703e-02
5.273431508761888820e-02
8.758347278127176505e-02
1.258271472467790142e-01
9.771886342714131146e-02
2.930434531657392927e-02
1.342231800645814488e-01
4.771466607848794117e-03
4.528027031131720559e-02
4.229826261838762202e-02
3.038169167044991320e-02
1.339055716139935792e-01
1.287175074733055979e-02
2.222789091576549136e-02
1.310764314070450021e-01
5.303898960483817426e-02
5.031010154212968433e-02
8.809193334591233771e-02
6.529352388015657871e-02
6.921482649317671487e-02
-7.605343897160690703e-02
1.449754607355533409e-01
-4.330103374115994858e-02
3.554306392718170060e-01
-4.637510283775002351e-02
-8.003988936652547959e-02
1.630701568210687902e-01
1.146344165404422910e-01
8.856205046071101428e-02
3.201249835273721756e-01
6.847353197308136963e-02
8.413838914485778642e-03
-1.927997842516070148e-02
2.674959649764069858e-01
-2.864837746395670903e-02
1.477611831347378779e-01
8.953073184469209633e-02
1.341981361954056040e-01
3.607418317397998592e-02
-4.737411766874734254e-02
6.801242539796659159e-02
1.800034933050556618e-02
1.863757431788024554e-01
1.350960386720875539e-01
1.401957350532017366e-01
2.125858021758214034e-01
1.894021177189193772e-01
2.939305729075678553e-01
2.054864080676054028e-01
4.856215383767351762e-02
5.440153253164921321e-02
-7.430549647607934127e-02
7.347121051408425640e-02
1.249235867994130389e-01
-1.214982532991454311e-02
-1.444612472099800482e-01
3.857511140469871425e-02
-5.884619833782789994e-02
1.380023215552743654e-01
5.651008359824584437e-02
-1.018936228202013683e-01
1.325510533274179559e-01
1.218701406928893310e-01
1.431265932853614531e-01
5.709919276502185836e-02
1.969173362957197804e-01
2.069986187849061077e-01
-4.332704724964415999e-02
8.798717863475671863e-02
-1.884230263240974090e-02
1.152309135890254854e-01
-8.278188677773208604e-02
5.399984570059176980e-03
3.713669442339915389e-02
8.804358778172609312e-02
1.553074718874431492e-01
1.948484712975074307e-01
3.516418974770789130e-01
2.953945677427362582e-01
1.259529766464664302e-01
9.215283805063820277e-02
9.514621895020121400e-03
8.651956475353453357e-02
2.409223188600671528e-01
-1.497532427987521841e-01
4.896478331761261460e-02
-5.300988936927844564e-02
2.074773599144412728e-01
1.728851163221007126e-01
-6.033780197343463492e-03
4.001215540384567282e-02
1.890757841175176035e-01
1.301863368464561965e-01
-3.335836223215742080e-02
1.669899048223871252e-01
-4.297130282647267097e-02
7.118196629004346077e-02
2.821981778658482209e-01
1.252184998726907084e-01
-2.881984919292662067e-02
2.553547947109532923e-01
-4.445990381270492620e-02
2.063720001208922961e-01
-1.402291751723103441e-01
2.250973314978138573e-02
7.371948847724199561e-02
1.092203132928236675e-01
3.128457003002572123e-01
1.052878583122506539e-01
2.308552855879557608e-01
1.515781943677621257e-01
1.357402356722129388e-01
7.019161434294070301e-02
8.669044153940404229e-02
1.184743372163277741e-01
1.993646262371260303e-01
1.765181936974644095e-01
1.526496661282961964e-01
1.371805041687899906e-01
1.010374785309335055e-01
-1.242001878949717669e-01
6.226243015012648818e-02
8.892056827870345459e-02
8.221643967058642199e-03
-6.268778560042473358e-02
2.313602778838625418e-01
2.292388440316234788e-01
2.366670867483345458e-02
1.116057903051090316e-01
1.213013084189667606e-01
5.606194120799993380e-02
2.140485392673534618e-02
1.558584027830280799e-02
1.613087058880310343e-01
1.634831396736639852e-03
-7.307029182228336195e-02
3.146577745643094892e-02
3.137368882896607314e-02
6.276509522200951485e-02
1.839597465816003308e-01
-1.561180757773844574e-02
-6.698365935765698831e-02
9.520335330889920233e-02
1.252745351233782167e-01
3.096328421224862210e-02
2.097721722694265156e-01
5.784998630549734178e-02
-5.725566508079042716e-02
4.689396060595105858e-02
7.894305565609321951e-02
3.107323279090874746e-02
1.046476729903556280e-01
-4.940896498473404397e-02
2.577947835385707709e-01
2.019552350025840548e-01
-1.470539586321811809e-01
3.720946286492460287e-02
2.877420795935471676e-02
4.974566989296329983e-02
4.603391704422635927e-02
1.133334669089364616e-01
3.571400267949621787e-02
1.193355427089313470e-01
7.270775690617806153e-02
2.907348262318629195e-03
3.688644868946036603e-02
-6.526324650996895294e-02
2.259255889310132770e-02
2.058167732317960352e-01
9.762141662727014113e-02
1.035778201292725242e-01
-4.594597454555744698e-02
2.574669382739990242e-01
9.169896430510660057e-02
-1.523241252152411351e-01
-5.902368953686148306e-02
1.264575734425808506e-01
7.251593035092035455e-02
1.468676596573638693e-01
1.850712796651869940e-01
3.934342347630913339e-02
3.228775483402024360e-01
1.526469789148257872e-01
1.657750045153049967e-01
3.634407195113633499e-02
5.393369199606179443e-02
1.311960978391691901e-01
2.073553182940678641e-01
-8.259718553958045328e-03
-4.261927753062566548e-02
1.974559144740479222e-01
1.002946334934103623e-01
1.312758953429728481e-01
9.456314142789086497e-02
3.032572567710015154e-02
-4.237427873268140299e-03
1.098591120973747837e-02
4.104092684025269222e-02
1.761775461135884902e-01
3.115763401331708704e-02
1.859011740922020817e-01
2.076153356950873052e-02
7.781475307181805190e-02
3.843343332983341354e-02
1.128103472425010800e-01
7.179190765049289769e-02
1.559883449960697277e-01
2.139515129828448436e-01
8.881077427579611716e-02
-5.174808815014972363e-02
1.214840802856620855e-01
3.126417808090600770e-02
2.988933770764823014e-02
2.710695380089414019e-01
8.288330166820931377e-02
7.515214793652952308e-02
1.411117621132636502e-01
1.278767798668536404e-01
9.168222057141262038e-02
1.603480955327307167e-01
1.077440505119650893e-01
6.687533902352869875e-02
2.382225642571093871e-01
-6.733014847045160067e-02
7.750744381773055913e-02
6.593208110385388732e-02
4.931793426863811947e-02
1.723150205565323612e-01
1.055051856461390325e-01
2.233174794771118910e-01
4.641110385657221810e-02
2.358473374812880552e-02
-1.578969140060697829e-01
7.146635299419587528e-02
6.516649311933747635e-02
-1.031373144462672253e-01
2.100098527577102803e-01
1.501464275825261374e-01
2.373844744189255174e-01
9.806125675942077569e-02
9.445861939276450903e-02
1.017528416466287750e-01
6.401498684014066132e-02
1.803754123231087747e-01
1.368408001123732620e-01
5.897867745243634552e-02
7.534595370048956242e-02
1.849900305967119574e-01
-1.414474527476557719e-01
1.417617904340478380e-02
9.227604934596456143e-03
7.020514858735427133e-02
1.359111140400708906e-01
4.974618791695423203e-02
1.050202233230833060e-01
3.666049562855132338e-02
1.294881090659608658e-01
1.758284147001989706e-01
-2.465554596876683435e-01
-3.500812915581132112e-02
1.902650778394780751e-01
2.885962414952264465e-02
3.256891519624214443e-02
-5.243334628555101906e-02
2.697346560235069912e-04
2.515899187354784239e-01
1.720181740652071134e-01
-5.661117001855678343e-02
2.082259446277251458e-01
1.607017223619591414e-02
1.002644240531084807e-01
4.201321322585763185e-02
1.610924850244485618e-02
-2.413215395994240675e-03
3.326128838301185137e-02
5.682217966123614961e-02
1.283696161827619503e-02
1.025639859543582832e-01
1.176456306830280518e-01
-1.058756901138667439e-01
-1.365381935420266479e-02
1.337758138625309845e-01
4.800250215631722550e-02
8.268328275587388809e-02
5.903789108361930105e-02
-7.105358098435980707e-03
1.936032017754528711e-01
1.577570226483134830e-01
2.624924607720497960e-01
4.180307161528791504e-02
3.013851059722379155e-02
2.403326843049269357e-01
4.377383093841199363e-02
1.401103470937630768e-01
1.777417306885326620e-01
2.062872574832344541e-02
7.700537419490961766e-02
1.374496151148876244e-01
1.218635068931137877e-01
-7.679256569929382437e-02
-6.877515849839828388e-02
3.327303694651470578e-01
4.923823789328381911e-02
-2.794905549801043193e-02
-5.066897668209079802e-02
1.870123178533315833e-01
-8.470299191198366051e-02
1.178351316155939049e-01
2.738701121580089382e-01
2.028682266091744457e-01
4.562486466823014591e-02
3.488518995982466814e-02
2.556242570858886093e-02
5.045889141388536919e-02
2.189865204613750116e-01
-4.541983472078367501e-02
1.063957595736811368e-03
7.586931325486273581e-02
1.738574615051189654e-01
7.444221956664952289e-02
3.720926187268402963e-02
1.532527625698850149e-01
1.131291237818204537e-01
1.188311331789383141e-01
1.373311830501247610e-01
-7.901930796247291777e-03
1.818702776517192310e-01
7.046438785418679407e-02
1.521018708584853663e-01
-7.859206157118145408e-03
2.642968828998402270e-02
2.805700694798977934e-02
2.270291743345898006e-01
1.691744899744847958e-02
-4.213156116422146075e-02
6.009886347169294402e-02
-2.845079699070958423e-02
8.288684468521918813e-02
-4.771111352502716008e-04
4.754808155338929865e-02
1.975897048532113953e-01
4.545835178523364994e-02
1.215742073334140083e-01
6.892014425660908383e-02
2.757476671565264881e-02
1.161394380264577364e-01
1.421590339027503369e-01
1.542464475964928639e-01
2.606470345292107305e-01
2.125147192346713565e-01
2.116150634117461571e-01
9.700151287403294131e-02
2.411198614258371065e-02
3.620854515579669669e-02
-1.313706080487749561e-01
-4.421520513025619520e-02
8.268661863296677961e-02
2.171592554245695139e-02
1.728129367838544816e-02
4.182473908822822994e-02
-5.742954260798849297e-02
2.025927790582149890e-01
1.700142877295223176e-01
1.882371385718296236e-02
1.179503414820635698e-01
-9.806494671118062834e-03
8.672010080254881348e-02
1.178466175555050593e-01
-2.685169769750136992e-02
2.956482376106057963e-02
1.415242151770679802e-01
4.709207990476697858e-02
9.900736658822492653e-02
-1.514776524899807408e-01
1.188314011100049250e-01
1.044596382902206605e-01
2.564968879067049956e-01
6.041736864073180002e-02
-1.102368185116861521e-02
2.193338120492255849e-01
1.243264230610135745e-01
1.093769377871886550e-01
3.640650155845426283e-01
-4.897879604072533088e-02
7.915750938186846830e-02
8.460275130448714764e-02
-6.061783550570051804e-02
8.468431396904443909e-02
1.157088897138555256e-01
1.137999271749135649e-02
-1.897221591091267923e-02
-6.772304369430762194e-02
4.357535026797718092e-02
1.814754311453422031e-01
5.948349467376223831e-02
1.218289995094670175e-01
2.520126122616991315e-01
1.023770773046228239e-01
1.281782958114649484e-01
1.551913050282044682e-01
7.166713209602877666e-02
2.892311824743332496e-02
-2.847700624566840144e-02
1.324151162489558275e-01
2.703886364853321234e-01
6.345145525309930923e-02
2.880293021498221695e-02
9.069361154120036961e-02
1.051255148754030866e-01
1.279595213538492759e-01
8.833122236938178995e-02
-1.007660838931833114e-01
2.663458015756946518e-01
-1.039054948033966141e-01
4.405571980178371594e-02
1.292437906610738041e-01
1.760224196513612838e-01
2.245166294863579215e-01
9.925195489337143573e-02
-7.528070150184047737e-02
-6.298785168859716288e-02
7.868693720933138402e-02
2.830671790543852484e-02
-4.274085363916096253e-02
2.284130961446383390e-01
1.468140227736765280e-01
1.350492119826944004e-01
1.492731103623515798e-01
1.995206366121904384e-02
1.056460300833604454e-01
3.857558740640662509e-02
1.950288846302553059e-01
1.153016633773777111e-01
-6.213055431903979908e-02
-1.548866785882317132e-01
4.048026489339548450e-02
1.160792063161473209e-01
7.802548099299685957e-02
1.967113619764489507e-01
1.149138701822902814e-01
3.287253173424872082e-02
6.399375190353087661e-02
-1.277054167604332324e-01
-6.051723853945562004e-02
2.969237939536454873e-01
1.585048282900320959e-01
-1.537049043398008852e-02
1.314724929800165920e-01
1.522133384303814285e-02
2.005057803298119501e-01
1.062585499462642552e-01
2.156202449869100146e-01
1.048348215552325907e-01
-3.245566859533181164e-02
1.254807064607316169e-01
1.463362813731329259e-01
1.736527438047454353e-01
1.412559241505901286e-01
5.481443283987225829e-02
1.239545297232927390e-02
1.591305124010884142e-01
3.693247033133043727e-02
2.048212036923580115e-01
1.297532078901626057e-02
2.796141065104670864e-02
1.414531554826843340e-01
-4.434760556936312437e-02
1.622520819081806343e-01
1.735140142394958340e-01
7.841259789673499236e-02
1.112653844737425679e-01
1.564073729338498475e-01
1.504683110674128188e-01
4.832096150408186214e-02
1.488658051363291046e-02
2.395604111385139789e-02
-1.445206739930658402e-01
-7.797180864393632449e-02
5.374379650508813444e-02
7.671635979796617710e-02
1.348405856750345411e-01
1.158398520158330641e-01
5.509659889282082779e-02
-1.741410768202011905e-02
1.895074362408761814e-01
1.301730819108704584e-01
8.004149681030385544e-02
1.162458376062778798e-01
-2.432074579347141829e-02
5.086302530432182389e-02
2.613198923806768492e-02
1.377229852424217971e-01
6.130249310027700849e-02
6.708235551132374352e-02
-1.255351874516810184e-01
6.304974701739726739e-02
2.098413240393874057e-01
1.638892719322111724e-01
2.184469481899095067e-01
1.266440432357178736e-01
1.661040888887151401e-01
1.136999542320858703e-01
1.469035748218637527e-01
-1.992296900899873796e-02
1.025716998664953639e-01
1.078040484279993994e-01
1.489663970059168507e-01
1.333003454359624196e-01
4.497851786712647737e-02
7.101225146959347367e-02
1.858259735875392171e-01
3.597223198716265752e-02
1.387661896585009880e-01
6.759683808499483693e-02
9.229839210142604111e-02
5.092072000228903272e-03
1.022428357780328922e-01
-2.703699430966925721e-02
3.319073140633534147e-02
2.244690950945499586e-01
1.625740249973493534e-01
1.114518425950871278e-01
2.144231874355117529e-01
-2.939332873805793056e-02
-5.919891652454140063e-02
1.542645632324156635e-01
1.257047550152509130e-01
1.770820973098719275e-01
2.065951828922167333e-01
1.913487059869979634e-01
1.030172790277459338e-01
-6.070457617672482542e-02
1.682953020408452238e-02
-5.251509633510276220e-02
6.454227703251597115e-02
1.129110017409539202e-01
2.357401711351437834e-01
1.043919044801763785e-01
8.866128886056826031e-02
2.547103046660976200e-01
2.769693460251976269e-01
2.346545118913266614e-01
1.026148882423365133e-01
1.991137340321355587e-01
9.990621068649421788e-02
9.343453068968696207e-02
-1.533643436401239957e-01
-1.438995885911821537e-02
2.186765262268836052e-01
3.018403040379166180e-01
-3.418432559467766280e-02
2.421816530141592816e-01
5.462345472716203382e-02
1.347320372357047047e-02
1.274966994648048801e-01
6.522548888377696641e-02
-8.697466804184639244e-02
6.260084659709688748e-02
1.579242488289038793e-01
8.042429186253863271e-02
1.837336979117102365e-01
4.986436036238466735e-02
-1.427592531059957565e-02
-1.027258415715856937e-01
1.623243840703015028e-01
-5.438404251908696141e-03
2.091017049234002723e-01
6.182899851971466326e-02
-1.835952450941417957e-03
-3.476374493906919660e-02
1.052268266517038531e-01
-1.018989768184152822e-01
2.140762861594788791e-01
-6.052166999813234083e-02
1.784058134026462739e-01
5.792916743912204097e-02
1.224177467494537430e-01
4.622951460889371950e-02
1.821733637370103742e-01
-3.268573855961950936e-02
1.522133336670239701e-01
-1.711240894632971160e-02
1.834183727025692767e-01
2.233167272558059802e-01
7.810133539700875316e-02
2.314325219029952918e-02
2.740822499963361247e-01
1.934093755378175905e-01
2.115768225090622900e-01
-3.449201991079450802e-02
1.353745299654236511e-01
5.748164850002444176e-02
2.586728127209596967e-02
1.695938021928960204e-01
1.576662583423026065e-01
1.645164105008842248e-01
-9.749985153077345146e-03
3.509093549478561891e-02
1.768260032756279743e-01
2.883276510355825550e-01
1.703750263498463591e-01
-4.793810665165591789e-02
1.895803329925355163e-02
2.782735237756949268e-02
3.145903046887529864e-02
-1.233528278287638058e-01
7.610806293184597948e-02
2.762526852794130461e-01
-1.980316789233801250e-02
1.605423291309160949e-01
4.267983757670675005e-02
2.603883739341346093e-01
1.202522040221332966e-01
1.378209526817197328e-01
1.739065876214315187e-01
5.194319584218362595e-02
-4.479820552827040725e-02
8.879573848582503204e-02
-3.718158760321102485e-02
8.925988846574693658e-02
8.953535690498107269e-02
1.026002434000786168e-02
4.067778022013081307e-02
1.515987639352044947e-01
1.386483460379572819e-02
2.019902379401628534e-01
1.618299671418714225e-01
-1.769947073585207697e-01
1.841110149244651883e-01
-1.111626705968641465e-01
-1.851021263547936169e-02
1.114262307075047920e-01
-1.347017657547744385e-03
7.566391516511843107e-02
1.093527142181212053e-01
-6.001748820872009754e-02
6.802455412957597591e-02
-1.798345924324307871e-02
1.424623502434204658e-01
2.066190412791968911e-01
-3.320903382845698248e-02
1.521170054414573702e-01
8.474771283585666448e-02
-1.148398230259264630e-01
8.382008427553763741e-02
2.652580881257353695e-01
-2.824842115408039700e-02
1.977162313313716724e-01
-1.466697231057861872e-02
-4.805005043331936343e-02
2.856170340443817124e-03
6.278849334908917501e-02
4.198454586639616820e-02
1.334725089467356240e-02
4.622674958281869362e-02
2.208637217563421129e-01
-3.105123118650374159e-02
4.343676608799779126e-02
1.212877477368592416e-01
1.340308029190248329e-01
1.680237115374683954e-01
1.723744351281070730e-01
8.614842041787375282e-02
1.360696754684867504e-01
4.491956149248784586e-02
2.202380516425136991e-01
1.239234701658422366e-01
7.399005162606858699e-02
1.441058572847057351e-01
1.204723425860512315e-01
2.286018109694574751e-01
1.730059967634633988e-01
1.886799602483254512e-01
-5.234527177406737841e-03
-7.036974827024344847e-02
1.804301687745417659e-01
-9.431778293355619347e-02
7.604659867994351119e-02
1.136120375039209943e-02
-8.312362211447540949e-02
2.244931363317877737e-01
7.795928311127714450e-04
1.317202187645782896e-01
7.904016379935559222e-02
5.155359186202608524e-02
1.275167980236759924e-01
7.793253046796180805e-02
1.800236541869332241e-01
-2.521768690353315412e-02
9.774328124132661277e-02
5.939287054013632494e-02
1.426363864571406070e-01
4.596151432492837779e-02
1.698201076166600265e-01
-1.623747699085025809e-01
3.570031926305121395e-02
1.671649352659367316e-01
1.434705923939371686e-01
-2.213533207056878060e-02
8.415475095505921266e-02
9.123231362628342334e-02
7.143507210580231359e-02
5.159657229646513743e-02
-6.322158092917863625e-02
1.680737669699409464e-01
3.291731546036297945e-02
4.201386313555549590e-02
1.221063153592436279e-01
8.428317257023704157e-02
2.238609524252012650e-01
5.393984788292224136e-02
1.630828744017719378e-01
1.070773421473393550e-02
-3.364704077273668326e-02
1.429565920631329368e-01
-2.007966650898312944e-02
6.976577023690899715e-02
3.056028149686184081e-01
3.958944722575244435e-02
4.819647180640611317e-02
2.252245430029580220e-01
-2.634354253856596717e-02
7.121003069440647038e-02
1.187252889110241016e-01
1.231060754386408135e-01
1.293624336070080538e-01
1.856806182332927935e-01
1.805813309164649993e-01
5.820480295581186708e-02
-8.567491921043710046e-02
1.501080977349517898e-01
1.251714784561734073e-01
1.161365587229343244e-02
4.336188213615663894e-02
1.006052328274662788e-01
1.538021211391169540e-01
3.999765602842165341e-02
1.553637345930201363e-01
-9.431979122689881923e-02
1.690396867136755299e-01
-7.261065061527871567e-02
8.027977126603236951e-03
6.545682419856352352e-02
-5.970092951601604914e-02
9.268705146239121506e-02
8.636925053358358861e-02
-5.769239019492797271e-02
1.891604306813852165e-01
-1.684398580687491292e-02
5.900725388259728255e-02
8.902396131632581144e-02
1.085984809196245543e-01
1.615311909364635368e-01
9.307255050633848892e-02
1.479427217100622305e-01
1.534637274999213485e-01
-6.116744071681147477e-02
-6.385759979343678949e-02
-6.649734359576259246e-02
2.606381627562999181e-01
5.743225962367574239e-02
1.225437458545950709e-01
7.699301334373032102e-02
1.765053720057737086e-01
-5.156154011921736113e-02
1.962856920734341593e-01
5.013536488572949146e-02
-5.784917879615261715e-02
1.393276836182598399e-01
1.873375414247224202e-01
-1.284881276849421383e-02
-5.282242324967782732e-02
1.008208534139983376e-01
1.240788107664745343e-01
9.703887727610011060e-02
2.513135562033153581e-01
5.692273366532021178e-02
-1.338582004863975161e-03
-3.783815578048961570e-02
1.302414496888794626e-01
-1.676020263076684058e-01
2.473001648397386565e-01
1.407114981784477609e-02
2.477627788638371298e-01
1.661274011738334000e-01
2.225284605349443501e-01
1.413958765987616828e-01
1.953957751364714390e-01
2.495496055156642620e-02
2.076020371341943949e-01
-1.011176275123967794e-02
1.549162883929054990e-01
1.978328174309586240e-01
1.378141394557887423e-01
-1.064109177271218565e-01
-1.097169261345078001e-01
1.063079997746308181e-01
-6.475619489702627574e-03
-5.278531694998374324e-02
2.010896192698977125e-01
5.256000539079502820e-02
2.352047035046268483e-02
2.079759744655551579e-01
1.018104817152092334e-01
1.952277099084749890e-01
-1.877076547591839673e-02
3.415414193269034060e-02
-9.265420857739292693e-03
6.926427350439698372e-02
2.213827032595233890e-01
-1.040662814769099664e-01
6.593852527508810291e-02
-2.918119795933557525e-02
7.533807845952686377e-02
2.353564485509096471e-01
1.899855005357664606e-01
1.806079496351624680e-01
2.171100666832398995e-01
9.063285073866866881e-02
1.345733787312800300e-01
1.263550465190149130e-01
2.756611438866736763e-01
5.517517631163841585e-02
1.844461323113968376e-01
1.666175511296786316e-01
2.391292488060226540e-01
9.740979819867064127e-02
1.571368825059077934e-01
-3.182445701956036765e-02
1.848217503709183307e-01
1.237768648259335580e-01
1.235146795950750193e-01
1.860867193087321902e-02
1.000234044215935064e-01
1.260210919531309925e-03
1.519067510943547528e-01
1.632900937392940954e-01
2.178210531752956119e-02
5.014074210808657645e-02
2.759921682808142429e-01
1.125349317054190335e-01
2.740574094870749100e-01
2.946086046191060195e-02
-1.365841746311395599e-02
-3.260686780783762784e-02
2.470935007796687399e-02
-1.289812872011392164e-02
1.083344311364290019e-01
1.201403959348121275e-01
8.814102810467289162e-02
4.663759572297347666e-02
1.706550033677846634e-01
2.800148341487458670e-02
-3.731233003869037501e-02
7.819188470535798352e-02
1.823015774121662935e-01
9.957229037193308929e-02
2.320934127683761672e-01
8.949446321765658352e-02
7.954261762898211241e-02
-1.923458794791543525e-01
1.340549474885545100e-01
5.342164039509560147e-02
2.117859740381490830e-01
1.729321046215804292e-01
2.629472977090555608e-01
7.087674491130022125e-02
1.568490925267868041e-02
1.962563068809417277e-01
1.774963947325231550e-01
6.656595470420356708e-02
1.845203637271951580e-01
1.526838382346046574e-01
2.673348710378526880e-02
2.575790299866392158e-02
7.561611709606111398e-02
1.073757810280458330e-01
1.034409674016019132e-01
2.073400905835054431e-01
-3.740576880401971782e-02
-4.888033439920008716e-02
-1.350733442905385773e-01
-9.760844490216916136e-02
3.120379011641978284e-01
1.346677171065328582e-01
9.799037745651373310e-02
-6.719513097838213100e-02
6.017642786396991406e-02
-1.731091539224776099e-01
1.130774793425416702e-01
-4.097676222920620948e-03
1.647338045107532289e-01
3.612873101800954667e-01
2.588828161103411407e-01
8.302030500267813806e-02
1.541165504497791217e-01
9.856604310246422362e-02
2.447978627535948859e-01
1.606107613511721099e-01
6.826465765619876835e-04
3.642521442484412120e-01
-1.154504948011020327e-02
-1.482870552274962728e-01
8.684244939362877058e-02
1.523197940927857319e-01
4.708953743451790852e-02
3.950167909138338485e-03
9.711354842415781397e-02
4.191425676638400877e-02
-3.925588361325976772e-03
2.093324965474402388e-03
1.783099987610307635e-01
1.015328830003745797e-01
-1.018714412399563396e-01
-7.994681103443598835e-02
1.093568803150935798e-01
-1.531138645511676000e-01
9.485863155711163341e-03
-5.545250827333463028e-02
2.896758248605185021e-02
1.407169905463425130e-01
-5.049564711867703115e-02
-1.677860496128378565e-01
2.036581897587342455e-02
6.390478102823536621e-02
-2.928652724090449744e-02
2.248986215824384793e-02
5.549689606949989584e-02
4.069560362365540196e-02
1.466203833098539966e-01
1.941808827534901027e-01
-2.539047186725880423e-03
1.764944545007431781e-02
6.313675880695701625e-02
4.418351608850794310e-02
-1.145053084561062362e-02
3.358583156458797014e-02
7.760541545171806277e-02
3.424432948558329970e-02
1.986451389713438098e-01
2.496493362646477754e-02
5.642149879581601080e-04
8.566097509739956095e-02
3.194424550110167710e-02
6.376149603345664107e-02
3.047255993865086859e-02
7.892839663199216482e-03
1.632502490772106130e-01
-1.179562300221680127e-02
8.836071596853131704e-02
3.433374758389640818e-02
6.766958517592056022e-02
-1.089318125721294300e-01
-7.096400338936256769e-03
4.849723939463167210e-02
1.215899161952340157e-01
1.858869035035577710e-03
1.710450256809670777e-01
1.298406517102829172e-02
-4.813266065209619027e-02
-3.063096982821712777e-02
2.403105981024187265e-01
2.225567354417612997e-01
2.480415844548155280e-01
1.168960256413252297e-01
1.955174249316117829e-01
1.267114600571422334e-01
8.369593443253203757e-02
5.442405795696658721e-03
1.650591037283425100e-01
8.002362295124881841e-02
1.098801137093470548e-02
1.692948040066460935e-01
-6.692727454178817870e-02
6.326391852356400003e-02
1.456558157637410367e-01
1.446093217534946684e-02
-9.889827006283338773e-03
3.160779067209261162e-01
2.209521664905507998e-01
2.036520771709544042e-01
2.996080474724809872e-01
-1.297505578545021243e-01
8.396369986263116370e-02
9.787474268132125010e-02
5.847996381138916705e-02
-1.509347865099520958e-02
2.630757624405930528e-01
2.537296720370107311e-02
5.036331308892224440e-02
1.774299890663935952e-01
7.755584098917643610e-02
1.062378934702100236e-01
-2.000554116687201234e-01
1.501615070913942251e-01
7.141622353750635976e-02
-6.362263888668945322e-02
2.582690996552981788e-02
6.745073385911824759e-02
9.571961510016614716e-02
1.086455040990804005e-01
3.345654732595375047e-01
8.112044172974880452e-02
1.101310436788405234e-01
6.520312594894832336e-02
2.274761486950950817e-01
1.301665561441986974e-01
1.605268695496989695e-01
1.781796648360503832e-01
2.683015049314826928e-02
-2.240413910297070488e-02
1.704352328364143743e-01
9.287342484120525432e-02
-2.409770825783653925e-02
5.736789759909117353e-02
2.336634061196364576e-02
2.134053524739590035e-01
1.570488143773829948e-01
-4.787526782647542195e-02
5.575214503658240672e-02
1.693974581489469944e-02
-5.962009343989893573e-02
1.602311061957188143e-01
2.649502122304229768e-01
5.641134393285023030e-02
2.252467639845354697e-01
1.461182294731118159e-01
-1.608719542882074971e-01
3.559079730764023314e-02
1.199796894123156266e-01
4.511208392670607720e-02
2.707025838959770114e-01
2.299448548385589763e-01
5.809571262874717312e-02
8.054556378730189092e-02
2.397071629791046321e-03
3.811861355196212442e-03
1.166282723005276772e-01
1.193260683494039021e-01
-1.106613647828209451e-01
7.969372235976576735e-02
6.494021088132703734e-02
2.667505443015074640e-01
1.817283438435989273e-01
3.209142592221444351e-02
2.279328929250890867e-01
7.642735091980934481e-02
2.946232730896566898e-02
5.956852260916761788e-02
4.865088361152067331e-02
9.687841760224163989e-02
6.119005388332902223e-02
1.157461186678959003e-01
1.404798510868962291e-01
-3.964803597424067239e-02
1.488183814238603353e-01
-3.221845347561480555e-02
-1.466108767963169579e-01
-1.076464411027498735e-02
4.752411698534426965e-02
8.658359801937540179e-02
2.890692168303015119e-01
1.534086299202728695e-02
1.990847888483586459e-02
-9.274166070707039189e-02
1.996875376176390215e-01
1.890343841411439296e-01
1.297802421988022425e-01
2.091102893585482791e-01
2.827786340443231294e-01
7.561583117983403102e-02
1.144740629903580609e-01
1.865787795687386952e-01
1.493086731825886970e-01
-5.350570275132933429e-02
1.714723510699995290e-01
7.764847284428591512e-02
-1.910071484501300876e-02
1.281249270275637842e-01
9.309227849485539330e-02
-9.211789290964361721e-03
8.826295340989520621e-02
1.994617491617997340e-01
1.084089031022614502e-01
1.463015823819342753e-01
-8.053169734045702299e-02
7.490214303205858237e-03
2.254909559470072988e-01
8.568747990213276822e-02
6.723623818155601006e-02
5.722562007418770247e-02
2.854369741754708700e-02
7.494469602087570903e-02
1.196164756443771487e-01
2.199572883827176362e-02
1.581557410001961650e-01
-1.872121540858589783e-01
1.620209293655837657e-01
2.042017644560575884e-01
1.070623777204362664e-01
3.223356832572170649e-01
2.954614832616109243e-02
2.388404927625689678e-01
-2.993263697893319697e-02
1.015709510540914462e-01
9.770104885958691421e-02
-5.379088959146778592e-02
-5.232450225452518755e-02
1.509586336088976077e-01
7.556077215645654044e-02
2.077737441366468707e-01
8.936018520533167697e-02
1.738557977865523296e-01
1.429692020688447807e-01
-2.790531243256953731e-02
-1.171499570381125122e-02
1.467830377926082619e-01
1.571990264355317413e-01
1.114177992785776450e-01
1.754363391480599083e-02
-8.125288320625820293e-02
8.106079351478612249e-02
2.129202451010849262e-01
-7.495678558307618256e-02
4.767529883174168037e-02
1.345499731724484060e-01
-1.225595411877611340e-01
2.474880393350742391e-02
-1.670939842210978632e-01
-5.385120061469239605e-02
9.463708071094478758e-03
-7.327195774707637166e-02
5.111381196802912419e-02
2.713605103961707621e-01
-8.174276319835625804e-02
1.426924356751513856e-01
5.464063271815986639e-02
1.273017071157324931e-01
4.095205563281489880e-02
9.326215831981579663e-02
2.006064674548978521e-01
2.210497891098725520e-01
2.727935665395718468e-02
-1.558804109671448890e-01
-1.622938650752306367e-02
2.900775904039958886e-01
1.677328481554040129e-01
4.467313473884674396e-02
9.653963771567214414e-02
-8.891516484730963010e-02
-1.099083869031474842e-01
8.238574143861385757e-01
-3.609867150526376856e-01
2.889524390077925775e-02
5.043086288678252926e-02
4.801454982980827846e-01
-6.712486874512657575e-01
-5.685065413191878747e-01
-6.804040804968490841e-01
5.011535182194558624e-01
1.039574367745458527e+00
5.767179527805657013e-01
1.034472035281287228e-01
-2.240140946757133988e-01
3.526272059646343715e-01
1.211888122466512896e-01
2.107175825692375326e-01
9.085984861332934148e-01
7.702945582608065056e-01
4.148708717729467921e-01
8.853703042620499897e-01
-7.844991585215775887e-01
9.587934363871748467e-01
-2.458858812921205228e-02
2.996531148490113039e-01
6.397247566345923842e-01
-4.048651172432572443e-01
1.149883830384456629e-01
8.317128558603721356e-01
-8.298952264843659776e-01
6.121422579761879312e-01
1.711631169007797604e-01
7.403423804486948256e-01
5.459433716615994525e-01
-1.163717679664608290e-01
2.779388991489453731e-01
-1.860413423896187246e-01
8.964311164112129249e-03
-8.622411216177181537e-01
9.594231628548688384e-02
4.723114705340820674e-01
1.905438288572479100e-01
-2.306057664756866465e-01
8.535096285928267523e-01
-3.600341285446840844e-01
6.544235070442818714e-01
-5.091422640548214362e-01
-2.606898434415826915e-01
-6.360856752066019748e-01
-3.705700305158018959e-02
8.914111925194810881e-01
1.715855932271664330e-01
-7.695901588959496165e-01
5.098096889285682609e-01
5.522797698737010874e-01
-1.091501593646856672e-01
-3.211846966598054243e-01
6.185145667128025271e-02
-8.659683590473541415e-01
-7.425970578958194235e-01
-4.458757803019327004e-01
8.180571850042668292e-01
6.272652246992094227e-01
-1.357344542899253381e-01
-3.654359758605301711e-01
-6.187480221106699263e-01
-2.042867724141955721e-02
2.606160934647738792e-02
7.477653427833620414e-01
3.639097312213676050e-01
2.648582116936248898e-01
-9.494767590167781102e-02
9.384034008945768557e-01
6.000173796299324014e-01
-5.314718135206133454e-01
-5.042104916812968629e-02
4.100625101037292941e-01
5.134374632417464390e-01
4.676329731080929031e-02
-3.877773036552980557e-01
6.051200157936951207e-01
3.226066343150306714e-01
-1.040692114218226272e-01
1.735374622869715611e-01
-3.340075468959254335e-01
-2.227395493801512250e-01
9.774651563730878123e-02
4.387957921392763860e-01
4.128904330599968142e-02
1.494434907490473641e-01
-3.541316487055869988e-01
9.719132869771316408e-01
5.559221997501408996e-01
-1.640846292243492988e-01
-2.890643703452343560e-01
4.420813408714456827e-01
6.717014605908131486e-01
6.182954157814598561e-01
6.141144282791096698e-01
1.322504825278623675e-01
-3.432842797723659745e-01
-1.903029117372935786e-01
8.618949231022903223e-01
7.962012290992344088e-01
5.048119988465101793e-01
2.473924301406769111e-01
-6.290200455962877690e-01
-6.151086493298938418e-01
-7.289327325651951961e-01
8.366426276155840558e-01
1.904604108784166416e-03
3.616997959261578632e-01
3.815430493792150712e-01
-9.501631583665347547e-01
6.152733448570603114e-01
-7.487484929149339496e-01
8.550338401216810436e-01
4.643800726561110315e-01
-3.520516970981335536e-02
6.023494793591381846e-01
4.471873785784947763e-01
-2.503209178721319539e-01
-3.965983095097893596e-01
-8.615656733382747179e-01
4.241176422400029233e-01
3.694638654355703045e-01
3.294919957219202833e-01
-7.827944751912908894e-02
2.618666090584664818e-01
3.988375128564433103e-01
-1.232352296495520527e-01
-6.029204994078898316e-01
-8.398870977098492618e-01
-5.888476540732913156e-01
-4.426334063240874306e-01
4.161454271270526029e-01
3.721726838693350387e-02
-5.216408359736551814e-02
8.822982117015720771e-01
5.052519702273899904e-01
2.287862006955728167e-01
-5.443537515308407571e-01
6.935564145935523284e-01
-7.303216212841727728e-01
6.873556400624047935e-01
-7.096211297642102123e-01
-7.905907832374248212e-01
4.079409415560605323e-01
-3.135061269599807576e-01
-8.974136521279660328e-02
-7.582946940998830376e-02
-2.337051729645144849e-01
-9.031223060845096073e-01
7.734795108758180104e-02
-2.886310255404633818e-02
-5.775289580130249512e-01
7.793673690403577492e-01
1.998765518582407141e-02
-4.444740090091108264e-01
4.624194480146124331e-01
-5.754596533743063791e-01
-4.424212617866972730e-01
-5.933106846173473725e-01
5.501137166786008725e-01
-1.585719526571945925e-01
1.190967365791385291e+00
-3.567192752170002534e-01
8.343966952973734807e-01
1.106415894214674012e-01
9.282809519975712131e-01
8.106485683717356006e-01
4.689224663341521881e-01
9.459433290582057730e-01
-6.401970826425212868e-02
-6.190889492816240569e-01
-2.135822471320707738e-01
1.032324654175778900e+00
-6.436173500949337045e-01
-2.843254887290017074e-01
1.039714662652558630e+00
-7.086017789257927912e-01
5.190818555635928755e-01
6.998688248653385235e-01
2.706468772817811619e-01
1.251938372576834879e-01
2.545821547761982218e-01
4.705563318182693355e-01
-8.272394447770454740e-01
-8.493618627603228832e-01
-8.760736447571317864e-01
-4.758218132180431770e-01
6.978504368131880353e-01
-2.141289302386169269e-01
4.121781070596917673e-01
1.632586674265710247e-01
9.475910837910992424e-01
-6.348198112420851968e-01
-3.525748379887305162e-01
5.515285142509609440e-01
6.987086736416656674e-01
-3.133184100000384054e-01
9.134879494175838222e-01
-6.521437954744294663e-01
6.396575307444808400e-01
2.153672434510065514e-01
6.422022429056308823e-01
-2.679678756494152103e-01
-3.770568977372409925e-01
-6.329315897554030901e-01
4.242547282438151046e-01
-1.974121324429469193e-01
-5.716758854699557357e-01
-7.282836998276868146e-01
4.218214153558047519e-01
4.309977050156615364e-01
-5.770372605838942626e-01
-1.690068166764852609e-01
-7.617609613970647287e-01
-6.807114548129447051e-01
6.804010197930544512e-01
6.425470090107427978e-01
1.087012890720065184e-01
-6.303535016509982380e-01
2.674455064053311570e-01
3.844965315103432979e-01
-4.790556342919989885e-01
-2.355185428167215211e-01
-3.191243820852519009e-01
6.331695990568431132e-01
3.753626712588082337e-01
-9.127259871773893973e-01
2.457320588471125500e-01
7.589261474513584460e-01
5.305381521922334365e-01
8.175529412865288892e-01
7.128161202754215164e-01
5.801351321476088119e-01
8.323437240741453358e-02
-6.186187666981923794e-01
-5.428540861311698107e-01
1.000154976299238996e-01
2.196442381132855948e-01
3.945365710639117673e-01
-4.906418983303493797e-01
-6.523428608006015539e-01
-4.881390671882483989e-01
-1.044582605941585807e-01
8.017746927031390580e-01
-1.382733725482586107e-01
1.421863376561562781e-02
-3.750618360680336716e-01
-6.658846887566594042e-01
8.160701635810501120e-01
2.512598984897359555e-01
2.712593697546500926e-01
8.949766954507610839e-01
5.163361190490010910e-02
-3.764684345064796545e-01
5.323316369672917991e-01
-6.333683124820317367e-01
2.729598342803870037e-01
-2.246694438074298139e-02
2.989595684100965212e-01
7.669555620878198976e-01
-4.377075340819720495e-01
7.437301248586958291e-01
7.094713521772015863e-01
-1.640554420550006387e-01
-1.645441037517878652e-03
-4.429254555835710483e-01
8.546718891830118459e-01
-4.358944794856413063e-01
1.025360400493488866e+00
-2.294999409711684368e-01
-3.946184239757604129e-01
1.122821832557351573e+00
-6.190782796192716431e-01
7.087505019075298618e-01
6.681260402358208950e-01
-1.687258885693177501e-01
-8.226638657360243467e-01
5.106612779673886521e-02
7.636366698141188181e-01
7.672194464661030722e-01
-4.747316836070461510e-01
-7.443259605163137227e-01
-5.184049848652311221e-01
5.726865104655383121e-01
1.079897385977689028e+00
-9.300853570409450821e-01
2.871760110940999589e-01
-7.962328696300893238e-01
-2.989814091171644206e-01
4.839051798636084811e-01
-3.740970236947525063e-01
-3.622892106452246797e-01
9.190574875682460121e-01
1.023564589336327657e+00
9.597522060894272400e-01
-1.222201341409216296e-01
5.429955669179863387e-01
9.436146965642802087e-01
3.190265494571016269e-01
4.546516534058396841e-01
-2.896957404391243274e-01
-8.681363150759301150e-02
6.975759583096328154e-01
6.543786381856733225e-01
4.505498698765768029e-01
8.628689158311848850e-02
4.124743452263768262e-01
-9.554016583956160824e-01
3.561722092421639729e-01
1.029064851162555305e+00
-2.680511678038317858e-02
5.309434265749424231e-01
-4.770855746197607550e-01
8.928590606411433983e-01
-4.293507125041914341e-01
-7.556694472797802486e-01
-4.715892023441615732e-01
4.087848853680391970e-01
-8.292297932699155272e-02
-5.482351607030344631e-01
6.724228992946064132e-01
1.104941851042072987e+00
-2.110801333533466606e-01
9.409260105380127248e-01
1.076859159722550308e+00
-4.047099663649342816e-01
-4.433754882645465356e-01
-8.459040435477107600e-01
8.571200383187655980e-01
7.227624861145399704e-01
5.506706538467932566e-01
-9.106054802274494708e-01
5.056022366076974306e-01
-2.977195867400466156e-01
-1.881671840056455269e-01
1.028385094712923831e+00
6.614322753711330272e-01
9.398441755496500516e-01
-7.020802861720383259e-01
-7.238557138265793167e-01
-5.055361918543429534e-01
4.751879695192091080e-01
9.841168920701506839e-02
-2.459748441498008087e-01
-8.287216525436519321e-01
-1.930831217999713079e-01
-4.157360207731289892e-01
8.972695409985280701e-01
8.506001130234304153e-01
1.767947553433575902e-01
1.018476535554862783e-01
-6.947401409715222576e-01
1.745689708430961384e-01
-6.423847126662327600e-01
1.920241943250078354e-03
9.365459892020251698e-02
-3.014803326754533774e-02
3.693815918284500954e-01
8.586231748507840988e-01
4.336909337724209612e-01
4.881624730381249888e-01
8.577523605214626423e-01
-2.793074918595748191e-01
-6.898938945653805277e-01
3.756299442225854435e-01
1.715608023452162845e-02
-1.873831968133583270e-01
1.121797225522700225e+00
4.272267213250920959e-01
-7.582288653611476414e-01
-7.025734664287632825e-01
5.040865897648034721e-01
-5.496581480070489301e-01
1.090657977793643374e+00
5.791525849682250815e-01
5.567836300728545851e-01
-8.799643465480957438e-01
-1.652910143670454635e-01
8.884480492254249739e-01
6.461934804088764750e-01
2.481268357072049513e-01
-7.429883221042794528e-01
1.220872160874668211e+00
-1.554907159210270895e-01
9.832822974700796692e-01
9.100791117631401583e-01
-3.345192764563164611e-01
5.300691956358334345e-01
7.073055618045054338e-01
-7.958802771677708776e-02
-2.524300161994452729e-01
5.603472521518471083e-01
-3.720744500298630575e-01
-8.415864969887478786e-01
-5.119262275153687591e-01
-1.629532049043624919e-01
-7.645732783865284432e-01
7.732307773695852315e-01
-1.084043131935723131e-01
-4.100165640463618311e-01
7.660709848388267407e-01
-5.849479773856272047e-01
4.327503629435013321e-01
-5.290338568660891694e-01
4.654538846640389471e-02
-5.190236652139378348e-01
-1.132188786837682176e-01
7.013604476062773596e-01
8.188968011524642154e-01
7.448535338181776488e-01
1.241689681933109690e-01
-2.962886959336590853e-01
-9.895756665812058817e-01
-7.360145393550890924e-01
1.056511479875528181e+00
1.190446390128803711e-01
6.579498831059503727e-01
6.205818188810885427e-01
1.016754601390893464e-01
-6.529651233503029895e-01
-7.538114298870531860e-01
-8.922351884806704048e-01
2.950374257836637093e-01
-1.387849828518618323e-03
-3.133808173750033399e-01
6.525843974934184555e-01
8.710706318678411442e-02
-3.792370994595794520e-01
-2.750455717036840997e-01
-6.080281650651081504e-03
5.147518937212086643e-01
-5.167094626901373999e-01
-2.757914363992711726e-01
3.432077111267116121e-01
-2.369361523199551844e-01
-7.933110592794653249e-01
-2.570752263135407389e-01
-8.085777084696165184e-01
-7.023205267858628753e-01
-9.686366825185317442e-01
7.619049859434514627e-01
2.053822432169456480e-01
3.941249276304584770e-01
-4.355682930265376562e-01
4.567076891829691676e-01
6.962009847031578325e-01
-3.605157027124871738e-01
3.425448862134069516e-01
6.781149642764640051e-01
-5.821785482876334905e-01
-6.848786710276475453e-01
9.492672880099735089e-01
-5.740621412109752075e-01
-5.590569012897882439e-01
-7.573136563132588650e-01
4.388455539586969545e-01
-3.345093152661400282e-01
-4.100437422163507595e-01
1.052116459286699612e+00
1.011417032708684882e+00
3.947601100181806766e-01
6.711882594072249297e-01
-9.766791524794635748e-01
3.521526775080017768e-01
1.674826532536100032e-01
-5.558261806659272608e-01
4.228689637235391041e-01
-3.004097734528036745e-01
8.979791857304568747e-01
-1.420155710637571178e-01
-8.917606211744629752e-01
1.010270199398520141e+00
-4.058125129245727103e-01
-6.993332106966534401e-01
4.279066779552901378e-01
1.419977832324800238e-01
-1.168240551152542439e+00
3.812691662239671708e-01
-9.990211401579662809e-01
5.901439735379345741e-01
3.928432255083770808e-01
-5.684885704045681276e-01
-7.743906327446999915e-01
-3.284052569645642405e-01
-8.638761888620182239e-01
-3.895708338586044706e-01
-6.054653044482780633e-01
9.875696442574566358e-01
-2.525897744135479628e-01
-1.866293188869506264e-02
1.538195230283246062e-01
6.163301662320027630e-01
2.773740643083859592e-01
-1.575843793371665968e-01
3.556212172492508733e-02
-6.763470503958814994e-01
-8.014998338891978769e-01
5.829576467896603331e-01
-7.943015019516530550e-01
-8.564110190916034149e-02
4.211296076051502385e-02
-9.885100732892352360e-01
7.141412731189182850e-01
-1.631312174405540327e-01
9.909301573553050968e-01
-5.364121751107155112e-02
1.909850800660457815e-01
-7.264605344849039970e-01
9.054016363163586156e-01
7.657761148597931333e-01
3.092106243660636133e-01
1.499099088789299650e-01
-5.505100346962980007e-01
1.456654174796763457e-01
7.698625290950170674e-01
1.141669347264769652e+00
-1.012487427392774197e+00
-5.217401303817416069e-01
8.201078299869110078e-01
-2.432271868603435583e-01
-8.543952157762366717e-01
6.828932957627552591e-01
7.155432963556044301e-01
5.861272707433856644e-01
-8.351369454193255937e-01
7.386028150644510792e-02
-4.851947556134302841e-01
8.894581352974307853e-01
-1.430849618920220223e-01
-6.516051130861873208e-02
2.893618668346324974e-01
8.172419942789580505e-01
-8.027917277667417917e-01
4.772468225413832588e-02
-9.867489246237523548e-02
2.864774278691356590e-01
2.753898649248783803e-01
-2.609476954833930828e-01
-8.664405449621930266e-01
4.377614591910167774e-01
-9.822310026216203305e-01
5.025904573403887632e-01
8.645131985305958278e-01
-1.122477537956038662e-01
8.763917178244425843e-01
1.511187169275056419e-01
-3.309758762351211470e-02
-9.003023982459886776e-01
7.970819823862582698e-01
1.062480574211193574e+00
4.927989256673309115e-01
-2.836978429112975708e-01
1.635042580697441683e-01
1.647458278238650708e-01
1.155417469666538688e-01
9.395282969262617190e-01
-2.661740047416674138e-01
5.179157248360115595e-01
3.855735312812484938e-01
-4.206026953190669104e-01
1.046820602835438985e+00
-1.051516293097706639e-01
-4.975509753856394157e-02
2.264654811929596723e-01
3.441674686058483479e-01
4.425041932562411018e-02
-3.978816052906106182e-01
9.720206139138237722e-01
1.615056707039094763e-02
-6.537782132915799238e-01
-7.583231324452900657e-02
6.305155558118548109e-01
9.261408378410663778e-01
-5.368591954370640629e-01
9.484729900000525571e-02
-8.153436386381868184e-01
3.770425084361004875e-01
5.178328894486364797e-01
-2.133654218583695139e-01
-4.638933049816724163e-01
-7.384934969451972808e-01
-5.502958291556028225e-01
5.580200015799932078e-01
9.382645280923069819e-01
5.965413248890939490e-01
-5.871089951652552763e-01
8.884204938202384660e-01
-5.462593643213810024e-01
1.673126651856435276e-01
4.095672960611458358e-01
-2.725913005895466701e-01
5.743939455238772362e-02
9.344572732840189522e-01
-1.460268012515924529e-01
-6.513203863780860914e-01
3.510057999073909474e-02
-8.124738808357711006e-01
5.902976484607156404e-01
-4.306314558500737855e-01
8.601421772397057630e-01
-3.067070139124274397e-01
-5.705191434179107679e-01
9.311029706632496517e-01
-8.835768333674011155e-01
1.070376239029085380e-01
4.378959863457494439e-01
6.344927288471205462e-02
-2.153475512932474800e-02
2.286262979722580857e-01
-2.527854879746741501e-01
-7.064726246274228849e-01
1.020906285907180466e-02
-9.238548916436448710e-01
7.401783428784105556e-01
7.425268536425997379e-01
-1.730917195178285350e-01
-4.880753907014556692e-01
-1.945317858090899743e-01
-4.121900163954073104e-01
9.700215065203476872e-01
-8.836074471650892104e-01
-8.213197636582401095e-01
5.523671897457121949e-01
4.235428302188183336e-01
-2.791318946542347135e-01
7.375039895891415398e-01
1.102841465471214866e+00
-7.313739978488684734e-01
-2.245816755820300575e-02
9.223217421710792063e-01
1.219564453766021961e+00
-2.171681051449756567e-02
-5.889299887322522187e-01
9.941117645037599315e-01
1.096578805041192428e+00
7.707104415016741150e-01
-8.232574713167079006e-01
2.205112328818305822e-01
6.705198412215893633e-01
7.365721725538294518e-01
8.707161334398562380e-03
-6.103005777874019877e-01
3.940258265905720314e-02
3.810660516289932076e-01
6.141486291257640673e-01
-3.827082845926582655e-01
-1.728450212503326588e-01
-1.944808964893781633e-01
-8.666849924498306601e-01
-2.055181372025202680e-01
1.952886641906488030e-01
7.821901818159577857e-01
-3.425479009798413355e-01
3.172474754648617057e-01
1.490957007067664764e-01
-9.036147955213547078e-02
4.084088144517804553e-01
7.116651292525105754e-02
-3.855393841987048154e-01
8.106977219396207524e-01
1.051728749235957272e+00
9.633261421408945147e-01
2.479775327023071851e-02
-8.003646138006321742e-01
1.430872747028031911e-01
8.744407880177773595e-01
-4.915308458258916824e-01
7.857712615712747484e-02
5.333520757479206509e-01
9.974045506738187239e-01
1.041383563704559867e+00
3.062059090095214930e-01
2.899793594373642480e-02
2.775284502692911270e-01
3.342283549417051081e-01
5.425518038802379372e-01
8.117160872851025832e-01
2.279373805937597308e-01
6.942046917202071565e-01
8.224186792989461869e-01
2.662766405949797965e-01
-1.039454941295751444e+00
1.657004806255908402e-01
5.712441097763660824e-01
-3.802706818133595040e-02
3.950605649311187406e-01
4.999433880644607586e-02
1.008251105415573778e-02
-6.153365503569798722e-01
-5.423169598596161434e-02
-2.321414864949618018e-01
1.131759087712544298e+00
7.563096005978307002e-01
-6.179372339585621488e-01
4.942868019271479674e-01
-7.769251708728315275e-01
-7.467589835081728245e-01
6.767714029286142630e-01
1.751377172811322824e-01
9.806455476425639528e-01
-8.117003181713060567e-01
9.031464007191131182e-01
-3.324206606498110173e-01
-7.557097779051341613e-01
-1.227123071942427673e-01
4.197346475085458883e-01
1.479908916394570007e-01
6.954576122263763649e-01
-5.792121315073498478e-01
2.728454949513284822e-01
-8.966191995706991325e-01
-2.699040915466018736e-03
3.311309919820955572e-01
-3.783854822948359842e-01
-3.813089664090441033e-01
5.014221870719424157e-01
-9.160921977761989909e-01
9.292578920374148232e-01
6.436351898170851182e-01
8.749693442032884239e-01
-6.327545894261579207e-01
8.714016641904722693e-01
-3.833521602802772432e-01
2.413197385803194650e-01
-3.285343674759023669e-01
-8.982980450169628650e-01
-7.687217997922494162e-01
-3.931307114122385010e-02
-8.929985692860124002e-01
-3.163886570021784417e-01
5.821998813045128340e-01
8.014866038685863892e-02
-8.032990140325793060e-01
-3.618370872253770520e-01
3.186383633483386157e-01
-2.633340532482099094e-01
-5.629774905396278672e-01
8.785082742409391909e-02
9.793996674549156900e-01
3.344773849395399901e-01
-8.877722731532096123e-01
-5.951701872261472293e-01
8.757629328240750244e-01
-7.527797075389814907e-01
9.142042139823264302e-01
-4.472701474632352348e-01
5.804605181962373406e-01
-7.156607787498395767e-01
-5.132856021452832929e-01
-4.711604447690774800e-01
1.868941814294174386e-01
-4.003934283401088257e-01
3.790326273807684831e-01
2.000688129410378435e-01
-4.409662555658019900e-01
8.002633099710307896e-01
-7.674025116143855518e-01
8.201344507062235945e-01
-3.162839334484697229e-01
4.437901559176605226e-01
6.155719380482750358e-01
1.025361288751309718e+00
9.462143873809508721e-01
9.768044921007133785e-02
-3.668487132955038366e-01
4.791725920400369265e-01
3.691909409980821954e-01
1.752066711026028789e-01
1.019946261119181408e+00
5.978838257599706774e-01
-5.615189709967276510e-01
-5.195076300854148954e-01
8.867845594403179765e-01
3.578619954927013402e-02
4.656844814260611976e-02
-3.724193827392866529e-01
9.749554455402611453e-01
3.148585093861835243e-02
-4.716516644990639273e-01
7.783666070741784848e-01
1.058467061104085422e-02
9.211754251866690613e-01
8.276166331737735971e-02
8.121229714117008669e-01
7.948776644053574536e-01
-8.328425999109654310e-01
7.967061877099272937e-01
-3.161123754147395770e-01
8.656573126850585220e-01
2.485138516832939570e-01
7.070907953081256858e-01
-4.969347452211414495e-01
-7.406891004828384251e-01
-5.035103224926456011e-01
-3.163274427836271219e-01
-1.915573225305971516e-01
2.497287261668601210e-01
5.819687074943455940e-01
-4.551573507990828160e-01
7.142950158589478349e-01
-1.479932714294616147e-01
-5.422579497314897745e-01
1.974223337337556450e-02
1.714082522234994799e-01
-8.365934542528419282e-01
2.294190947932347457e-01
2.372204792604258039e-01
1.276463556496240659e-02
-1.101721406035930662e-01
5.678000864675790682e-01
-1.130896968677026770e-02
4.076651875239893918e-01
-3.548432299297047399e-01
7.082259246248320261e-01
-9.856050303237247345e-02
-8.384704976142851596e-01
2.803246068902464638e-01
-2.466687241085607080e-02
-4.520655629858931768e-01
1.157694810795870000e+00
-3.681099657260278324e-01
2.234601021182011371e-01
6.555050064915353136e-01
-4.517152165746545212e-01
-2.315133092814710414e-01
7.736467231127253097e-01
8.085252613457724058e-01
1.749836719246729011e-01
4.926136662735927096e-01
8.626374859831867914e-01
3.517773364519367618e-01
9.491377162718098170e-03
8.891555685953707044e-01
-1.444967925697527855e-01
6.275306748705016258e-01
4.924838833213094902e-01
-1.557351851743562499e-01
1.663629676466967244e-01
9.187838113513401295e-01
-7.079180340375338387e-01
-4.689922506021347304e-01
6.286109354410247541e-01
5.724968319797865135e-01
-1.758242428656108802e-01
1.252892709890531253e-01
-5.622451205981697786e-01
8.521428757175919522e-01
-9.966230934183241130e-01
-6.973239376122515321e-01
3.345218786062958971e-02
1.892436745990303537e-01
4.922241520619933253e-01
-9.351151753420966495e-01
7.988617139203959550e-01
-7.855288258081118968e-01
-7.024524701695222806e-01
-6.136788357691931317e-01
5.696299356404536107e-01
1.055967852825563602e+00
6.978399548961664589e-01
4.389680298300173422e-02
2.879787152924497273e-01
-9.079962004993200608e-01
-9.111407388629322313e-01
1.138045929668834999e-02
4.503289906777823148e-01
-3.053409948223365089e-01
-4.451864704628151759e-01
-4.613271677852716635e-01
6.375224288700417352e-01
6.196811739910569328e-01
1.460431194540801336e-01
8.260729911235892287e-02
1.427253042820933737e-01
2.180252000710823368e-01
7.988572430312047834e-02
-9.746584504278611449e-01
-7.528855570800128127e-01
-4.249363669280084022e-01
1.030812096935088462e+00
5.807277241538141288e-01
1.461089553683488362e-01
4.659021213152254870e-02
-8.148976077070037294e-02
1.512567380347396018e-02
8.384648602585766941e-01
-9.580288466735353836e-01
-5.188672961487558188e-01
-3.534287595070804144e-01
7.560405553774712795e-01
-3.644305871362313876e-01
6.469961613844186221e-01
7.570165866833836743e-01
5.728731887527268585e-01
3.246827170263054119e-01
5.955736312630346418e-01
-1.022613550611468636e+00
-2.716513042666511835e-01
1.841878929416564392e-01
7.163286358859053404e-01
7.648678025412887216e-01
-6.475965077597080066e-01
7.152505281005165916e-01
-6.743981253929209885e-01
1.055633539625159711e+00
9.789170236930219149e-01
-1.567085941711252595e-01
6.358288280476327714e-02
5.890717289945146540e-02
-7.870165771143723399e-01
1.159957387918120864e+00
-6.020991280969247850e-01
1.585874628861942137e-01
3.287346259995208575e-01
1.560964598041216234e-01
-4.980400805186220303e-01
6.554121026718111309e-02
8.335521415128324119e-01
7.327769271490532921e-01
4.439221441273125679e-01
1.625423757785209311e-01
9.827421738748721713e-01
3.416322589178086289e-01
-1.773015224235741094e-02
-5.748812193098593593e-01
7.555231984709885606e-03
4.000174519007921869e-01
-7.370264297062291137e-01
-9.012226153133396922e-01
9.703332901635127739e-01
2.607988813323002808e-01
4.173213019764202003e-01
8.576338085324253235e-01
-8.248212078106390566e-01
5.898131113849733875e-01
2.253838723148736400e-02
-9.737775377507490449e-02
-6.670456382534355466e-01
-3.197648566580028051e-01
-8.185420841350212751e-01
1.755215360686162573e-01
6.896871496176715244e-01
8.102043688308225855e-01
3.151867131998939975e-01
5.007344977412894194e-01
4.784414792307558617e-01
-6.638770940132870946e-02
-3.291125848264766507e-01
-5.899202752281520468e-01
-8.320155237315978169e-01
-5.713004881123401324e-01
5.412203502755564832e-01
7.857269836278897301e-01
-7.042988941023925475e-01
-1.324363664893832837e-01
7.331794151741928278e-01
-5.337297083572004608e-01
-3.573500040137004841e-01
-5.395048171303371554e-01
4.271291657763630623e-01
8.874336516883907233e-01
-4.261946860063546283e-01
9.947620487137012191e-01
1.039857045901941418e-01
-6.482062576818320432e-01
4.336603455291494491e-01
-8.491968559033896691e-01
-2.774129001757656976e-01
-7.818248464459641445e-02
-4.512530802177498468e-01
5.528110228954029592e-01
-3.182171287454605424e-01
-3.346058209942544548e-01
5.389760693523807378e-01
-3.960543921283151692e-01
-6.569923601913677524e-01
5.882705215937026333e-01
7.506754280240418575e-01
5.529949511509353322e-01
4.895908781333163651e-02
6.014930516425401885e-01
2.400049624464308251e-01
-2.888912167820275601e-01
6.074286640735333531e-01
-4.349335184311867719e-01
-1.048212978472212953e+00
-8.570217421016933235e-02
-1.958836476091715406e-01
9.498301306039591552e-01
8.036150079733074547e-02
-6.948275969887768300e-02
1.764899022986657351e-01
-3.024153184385240389e-01
-5.357823332623024015e-01
3.064433991358269660e-01
-3.275733878381564268e-01
-4.165691826340713333e-01
7.914357414959685699e-02
1.115460648455299658e-01
8.090395880209541590e-02
-8.697091138830437274e-03
4.549608021888376652e-02
2.619395389407767616e-01
1.829030229182374012e-02
-1.651245915568044786e-01
9.564175313137200651e-02
-1.604682801105036805e-02
-2.355921289192038082e-02
1.949754317210436738e-01
2.362851589852985046e-02
1.268465480374519894e-02
-6.225907258430926627e-02
1.361869698272179796e-01
1.274443784273706914e-01
5.275520310848964833e-02
1.315963720100351286e-01
6.858334451158382139e-02
-9.005879762586460613e-02
8.618399026961694187e-02
2.149770020828774830e-01
9.092836475394251716e-02
4.180219683142714915e-02
1.354987406030480068e-01
1.364563181081353549e-01
1.066133511967336245e-01
-9.520080011201649539e-02
6.812046916644187711e-02
7.077288305279497149e-02
2.019488836104840201e-01
6.680898342969901482e-02
2.352419586055666534e-02
2.967527320187780537e-01
1.074866656892410621e-01
1.394664063906553009e-01
1.009423270132156630e-01
6.208770643106741732e-02
1.653539087626177406e-01
-1.295686618928467704e-01
-1.402299249144235427e-01
9.260284496738564741e-02
-3.206189306419063301e-02
3.606981835231165556e-02
-1.224267347942456646e-01
-1.206812836566170666e-02
1.284410334150979938e-01
1.884000315654345836e-01
1.225926910469987696e-01
1.098471317426562982e-01
4.391974641272135271e-02
-4.548528297879714244e-02
1.931168331587040377e-01
1.079281550392739430e-01
5.346940689865734009e-02
1.541685992563659180e-01
1.223569109878707289e-01
9.984541879444866486e-02
-2.078493723141824900e-02
-4.713859200483885847e-02
5.769626782605882798e-02
9.351554008563237042e-02
5.679080213734569171e-02
2.627612803744207581e-01
2.767154686669234809e-01
-8.911049896893505351e-02
1.549784028745191389e-01
2.293746047869365534e-01
-8.974446733084534555e-03
-1.017868338211763285e-01
1.058449147168534221e-01
9.530361327197213461e-02
-3.575648064523295061e-02
-3.150258709413093772e-02
4.512856167268818053e-02
1.261747856065448814e-01
6.635432707069865987e-02
6.497857013988539432e-02
-4.552661414238065585e-02
8.258822035120563787e-02
1.922933361894985094e-01
-3.801459598245016114e-02
1.120085646084776065e-01
8.591780862230437299e-02
3.945625236633058808e-02
2.817699986637890036e-02
3.029826555322733261e-01
2.399725894170480767e-01
-1.539648930900558987e-01
2.052063347756640788e-01
2.196877013566413683e-01
2.324623338131388550e-01
3.216027160180548461e-02
-5.030003667185287825e-02
-2.349516558392703014e-03
4.677151471177296710e-02
5.831959943606391389e-02
1.205469926245498341e-02
9.376230636871919766e-02
1.236838765270587559e-01
1.717969985129450261e-01
1.333313097696192662e-01
6.604121592895426107e-02
4.645268349043221723e-02
1.003651501312664840e-01
1.315898064123791067e-02
6.148260258386923499e-02
8.151979235099043875e-02
-7.126730090457641942e-02
3.534790401632818824e-02
1.338074322227676138e-01
2.405414904069680393e-01
-1.390268145630254026e-01
3.044333061239065663e-02
6.414883836589257982e-02
-2.428813734410167902e-02
2.965663866756618194e-02
1.585981531768467789e-01
2.558627002730853306e-01
-3.794380921764177461e-02
1.084541168541933581e-01
-1.559016818702167739e-02
3.699623699035177460e-02
2.685609868241487508e-01
-2.253939663818152472e-02
-8.366053061536302127e-02
6.494493204284332299e-02
-9.337400621991280569e-02
-5.336513115929934770e-02
1.145467120649081294e-01
-8.293990318520801097e-02
-1.241356528237554102e-02
-3.977145877095440707e-02
2.410048517826096082e-01
6.320475450609021328e-02
8.764830022813473176e-02
1.871271387080368498e-02
4.972289527003371373e-02
9.026696795029934273e-02
2.629033434572088934e-01
-1.667198444542306035e-01
-1.967574551671347760e-01
7.904245650534491574e-02
8.025221293315523696e-02
-1.548160014871605150e-01
3.581565339890874222e-03
9.565864524411733794e-02
1.622376655102661935e-01
-1.380509344703912400e-01
-3.078675253893541075e-02
1.315687947905454791e-01
1.037434070890303345e-01
2.411360330677602692e-01
2.654156177338933692e-02
1.092287349651859529e-01
1.135412097169807982e-01
6.957539079170468876e-02
6.213994140173854236e-02
5.351628169529917128e-02
8.357253692371108267e-02
-1.243464808256819487e-02
1.144135153580626840e-01
2.126070450186209881e-01
-1.059253213791608306e-02
3.260945987123983203e-01
-1.154196315227205144e-02
-3.046496260268746759e-02
-3.577889412510366907e-02
1.778323349068010040e-01
6.907983075739337897e-02
7.931678134107357503e-02
-2.079732176983155323e-01
4.831370321261510559e-02
7.994252409449434382e-02
-3.508477161845782039e-02
3.197171095727993628e-03
1.384720083953032144e-01
-1.342230592013920337e-02
1.578473671786397303e-01
6.784700504634061380e-02
5.403424684709521447e-02
1.776057904976949819e-01
-1.923050159793919522e-02
-1.389681622415320228e-02
1.232021844847584896e-01
1.107627339043986275e-01
5.730002673826521675e-02
1.387507805892424229e-01
1.022684182846511913e-01
1.199871464719984293e-01
-8.823847511981813829e-03
7.514371330627878098e-03
8.154602781430642100e-02
2.303557055598218217e-01
-1.013055419976475885e-01
1.822665873200127740e-01
7.706486420795036207e-02
1.469275896782732682e-01
1.147811000866011816e-01
1.334412237175070515e-01
1.807502537371950546e-01
1.928693077998405725e-01
2.126211772062910066e-01
1.672478000937680509e-01
-2.658277628894772926e-02
7.301259662951850582e-02
-4.462090153022182232e-02
1.808181348465930927e-01
1.309541974572621670e-01
1.699438996270454527e-01
5.362596385363375961e-02
3.736091869710766455e-01
8.158457163058334405e-02
1.389208927342971411e-01
1.464817984085212688e-01
1.545607334029593105e-01
1.446659073373007809e-01
2.737557307523936223e-01
-2.330785465726098460e-02
2.984414916751264302e-02
3.074266176080372448e-01
-5.573950630631820113e-02
6.008152939557433181e-02
1.436864499248192428e-01
7.767097247889216682e-02
-6.447917979050371562e-02
-8.133426269370158668e-02
1.565665843576487803e-01
-8.009193731360203516e-02
8.503044046545926715e-02
2.059113286110456909e-01
1.402320255644602387e-01
9.720167662552750554e-02
1.090635177818532198e-01
-9.100318705233438610e-02
-4.940185261516485959e-02
8.100468940099657400e-02
-8.547260508166096282e-02
4.680553140206151347e-02
-3.824303623793263995e-02
-1.199629300296354562e-01
5.416473001167351753e-02
9.305892185879602319e-02
2.118429187565903371e-01
-1.230944834283393963e-01
1.222503671109487072e-01
1.552481803122405246e-01
1.320571278340845756e-01
1.930252165012155685e-01
-1.968582689556385434e-01
7.137002266383886406e-02
2.273939966441612670e-01
1.253670927736821872e-02
1.402888914717277391e-01
1.608796625019941473e-01
1.716369271863635582e-01
-1.840651650267004502e-01
1.015656515685402217e-01
-1.115087681435186773e-02
1.619981263085190359e-01
-7.813322357623145309e-02
1.641283621788804659e-01
-3.940072702827042417e-02
1.672779308731920933e-01
2.798388110149894192e-01
1.263068441277057363e-01
1.177539444083920001e-02
1.135023137902501505e-01
7.069114397356891788e-02
3.045569714457564692e-02
1.628951931196756797e-01
2.165550081419610473e-01
3.168286796605758460e-02
3.336353857567315312e-02
2.733351556448913172e-02
-7.837523371835831976e-02
1.952219501957218328e-01
1.421619574018014864e-01
-3.640014407600836860e-02
6.852808969993057220e-02
1.199059502211002881e-01
3.516134706674167720e-02
1.410841425430088003e-01
-2.832966272031320343e-03
-1.838575278782383915e-02
2.437508095203802516e-02
-1.329010588814635574e-01
-5.109469916814911999e-02
5.210765391609554348e-02
2.053079098768449406e-01
3.700803633342149290e-02
1.512237962391812518e-01
1.505530766664119890e-01
3.858949214096718539e-02
1.379034290562618503e-01
-1.636580817681247968e-01
1.502636566571375898e-01
3.421938933320412685e-02
1.252215062085268726e-01
1.694589233303894771e-01
2.058912370402662673e-01
1.603896884152874180e-01
1.724131350497029314e-01
1.664427740676570067e-01
-8.342553577837984180e-02
3.193863996835096253e-01
-6.936471401260771441e-02
1.848662940672102240e-01
4.320550283918347251e-02
-3.777109185093538435e-03
5.632588416691803462e-02
1.797732713340119415e-02
-1.453970054880286689e-02
1.524264430640163703e-01
-1.301313717006381820e-02
1.637353603870172480e-01
1.747155599964991257e-01
8.233427036730862902e-03
1.004709453548857656e-01
-8.975650917202336598e-03
1.399333721251697638e-01
-2.060591967251977630e-02
-2.525613069497009699e-02
2.217674031678475155e-01
6.690414215997003700e-03
1.323073165961553554e-01
-1.028036581900619584e-02
1.729497565193556241e-01
5.555307296004115963e-02
9.060816178230420015e-02
1.465006210597214198e-01
1.091483198821661671e-01
5.805643098500197496e-02
7.539370219074845170e-02
1.708747488925637659e-01
1.393167208641605259e-01
1.031253052204576803e-01
1.051159088325355206e-01
2.221033095356282627e-02
1.250574434672235558e-01
4.202530350669439474e-02
6.581695669127946013e-02
1.010519689095313034e-01
8.245324926312967706e-02
1.488778997608727339e-01
2.086420991649101109e-01
2.124179071412291564e-01
9.901357682014849670e-02
1.733875142734535857e-01
-2.291609603803382300e-02
2.398445506616143919e-01
-1.082244219633626825e-02
9.152387335999254137e-02
6.226456678097440356e-02
2.283655674412129466e-01
3.160691172693515238e-02
1.036440564589641566e-01
5.733033452446644612e-02
-9.684824590233429009e-02
2.089811942179973514e-01
1.497649219653565122e-01
6.175309674289128359e-03
1.273737029997999426e-01
1.536772996219314402e-01
5.480512230151687869e-02
-4.694478691474747445e-02
2.474418765287939581e-01
7.844045295813206753e-02
1.620236904844428727e-01
2.027987752941796396e-01
-5.890644394214111790e-02
1.048075631179935241e-01
1.424920866641851691e-02
2.318901160449435839e-01
-9.008795905170925711e-02
4.442333365528422506e-02
1.145676643162672481e-01
8.944692152235075855e-02
6.652578044414511615e-02
5.099204967251746989e-03
3.073963839583036539e-01
1.410183215539570767e-01
7.643917360092807034e-02
1.534190790142308802e-01
2.013784741057473016e-01
2.378337867302224296e-01
1.237643685333500304e-01
2.124464991920054779e-01
1.303207239566017694e-02
3.077837761114239346e-01
1.877482119076976097e-01
2.635772372702677169e-01
-1.837542090292385022e-02
-5.582655471316344542e-02
2.665698421574946853e-02
1.762429119837077840e-01
1.794267393051080794e-01
1.553610714713014596e-01
1.816462042903488616e-01
7.641662099389444351e-02
1.080122597949378788e-01
9.241262176355916069e-02
-1.556211340772875318e-01
5.220098510471295195e-02
2.142219044083082946e-01
1.223972732513281675e-01
3.125821832959105873e-01
1.449491389017820431e-01
1.588004685544039951e-01
3.133035871099509873e-02
-1.942095276568793494e-02
8.063079722380178671e-02
1.224564213515051403e-01
3.677783280538341470e-01
-1.334261227870989219e-01
-1.702254868422004019e-02
7.492973941898781187e-02
1.389317539560400716e-01
1.689360057946194260e-01
7.669604067282978499e-02
-9.136310392550289761e-02
8.609732741671029255e-02
1.647880976306175249e-01
4.173259974868308991e-02
-1.322697081959724186e-02
1.765446840635407355e-01
1.768673974116192482e-01
-2.554877688170337224e-03
2.683982102644839607e-01
1.684889182786182826e-01
2.061756219752913788e-01
-2.339746481972659886e-02
-1.315815485353777348e-02
1.340450830373826063e-01
1.749149620454477638e-01
-1.387780844898560129e-01
-6.484234288332951790e-02
6.364517789105897383e-02
6.857518925433529755e-02
6.946812595669220325e-02
5.829481957709320428e-02
1.564417223049998640e-01
3.381417908763437730e-01
9.307236258925233319e-02
3.960178311411753638e-02
1.659208245846778840e-01
1.817457371284876000e-01
1.064094158298755366e-01
4.187853133845528125e-02
-4.133844310240325504e-02
1.678225698191267434e-01
6.904948639871857918e-02
9.083195885462415353e-02
1.496649330973246206e-01
-1.340917727147930838e-01
7.013985846108412858e-03
2.143532915741705180e-01
4.243537413192313701e-02
1.112170290175149706e-01
2.107884531676583739e-01
4.982490040192821823e-02
-3.676332976475696346e-03
-1.895047000111253765e-02
4.806350335136800461e-02
-3.465272039467551940e-02
2.200393303734158590e-01
9.747591193808283205e-02
2.513767351182685100e-02
1.662991116832231442e-01
1.994865942481598708e-01
4.864773720589743444e-03
2.019294208636666643e-01
4.284337308651173237e-02
5.934679433153979000e-02
1.737139374486486310e-02
6.431511608512964495e-02
7.245975077888131000e-02
1.350874770422129945e-01
1.104794533120061067e-01
1.238527640081600462e-01
2.023662474947891532e-01
1.700505199606472395e-01
1.183748997422140320e-01
-7.701010258522697494e-03
-1.131350285829830910e-01
1.936746665448597360e-01
2.343707753035798036e-01
1.968115186774590242e-01
1.736803381785007039e-01
2.878121095438863908e-02
-5.446564980115879695e-02
8.305990377889829746e-02
1.057289887579999504e-01
-1.252537417595049885e-01
1.132931926822773466e-01
-1.251100985442352848e-02
3.435754962122211098e-01
-2.188319273479874538e-02
3.542583829985769539e-02
9.198144618909573356e-02
1.017167292853992933e-01
4.048040079098001731e-03
-1.054657322615381032e-01
7.062429714051661478e-02
2.102606368279698323e-03
-5.459281621853151467e-02
5.884537383117233178e-02
1.334234300675934681e-01
-1.749220117372980721e-02
-2.584326195484660388e-02
3.838734798756593403e-02
1.893235978713511680e-01
3.623869175189198960e-02
1.624069115161608789e-01
-9.602077001074627027e-02
9.048547667724778087e-02
1.925560959142161854e-01
-2.948969507615516183e-02
7.536285657930273663e-02
3.109613083645892603e-02
2.488097151310485200e-02
1.967252918100297898e-01
1.189637744846425149e-01
2.686673993374106284e-01
3.140769688932036341e-01
-1.581516020709221315e-02
1.220338732937610582e-02
1.932897229567727415e-02
-6.398171349081173409e-02
1.501811333614976735e-02
6.727798396921651214e-02
1.776472980916926070e-01
2.383172976010775046e-01
2.024112573773663715e-01
1.012737444630149308e-01
3.545548947295066866e-01
5.095315404831865513e-03
6.665105021634842863e-02
5.587320747283480715e-02
1.755140765100163536e-01
7.900494387483903563e-03
4.999432373367825727e-02
1.755379435440702907e-02
1.305613277058525479e-01
5.161474919467604061e-02
1.096257228847825338e-01
-7.393599677215137445e-02
2.958801093683846584e-02
-2.265413759290871298e-02
1.585496731613418031e-01
-8.555406069407041347e-02
1.301773987931339194e-01
9.813619209761964557e-02
1.726694437470510102e-01
2.860070048379039637e-02
1.576114189795423115e-02
1.549435811916108907e-01
8.779137292834132689e-02
6.657790140220373742e-02
2.048113843547245683e-01
-2.040078349599408480e-02
1.326741884820049067e-01
2.683395427103371089e-01
-9.417646076222499496e-02
-3.560076918813291635e-02
-1.534501146519212378e-01
2.420854899229027413e-01
6.541400840599623234e-02
1.491703749630823306e-01
1.294569546733013721e-01
3.907402746773894209e-02
5.274060272212553746e-02
2.233981943742541776e-01
-6.009330344225877196e-03
1.238817625284366064e-01
-1.501328644307613203e-01
1.678010935414045446e-01
1.770350336914123524e-01
2.300216272461231559e-01
2.131492784457802991e-01
8.043148207547784478e-03
6.329293040381842039e-02
6.151182662188562494e-02
1.945007452977744467e-01
1.431873802370628168e-01
7.229193193988320276e-02
1.077971948502487454e-02
7.391487661591181202e-02
1.694585515532023856e-01
2.294607698749769609e-01
1.954508485319882416e-01
8.317894772649846169e-02
4.659355767033741824e-02
1.069210152996011853e-01
-6.933695952225427117e-03
1.381640720794032329e-01
9.331282108551700039e-02
5.204769793443547732e-02
5.988371246582191443e-04
4.203873232995862519e-02
-5.329139433050571195e-03
-1.016336737195979584e-01
-2.975555106013021145e-02
2.133443918060733968e-01
9.277919845404042354e-02
6.115063798691666025e-02
1.765208713912159999e-02
1.439879656385675832e-01
2.683785295845771135e-02
1.362456222482875262e-02
1.209749105810105085e-01
-5.922654300997569343e-02
8.053026378014910280e-02
1.967492521278347839e-01
-6.616535346758757596e-02
3.529155991978089046e-02
9.170076501612980935e-02
2.321198392353094331e-01
8.077511368932653590e-02
3.565385139537197712e-01
1.188814813895552880e-01
5.204304832525719765e-02
3.833112063885127929e-01
1.846429584821945302e-01
2.252661531954341656e-01
-2.812770147707724377e-02
1.228377860506852104e-01
5.532097185792549110e-02
1.355441579720096934e-01
2.887496549662099121e-01
-2.567242049891391154e-02
6.152595949246698892e-02
-1.591576945059386405e-01
-1.720623291438713037e-02
1.810792943128092525e-01
-2.904945208566971082e-02
1.036045752835206557e-01
-3.208288931838046421e-02
2.242964556780922478e-02
5.576358558909293855e-02
8.577887562781395803e-02
1.210815676815369113e-01
-8.157231253442429053e-02
1.207849293429703597e-01
1.357463787766902130e-01
-2.177584630256364229e-02
2.194767426687147666e-02
7.807318852753791782e-03
-9.021632675292601267e-04
6.708775774103685474e-02
1.675817698891152729e-01
7.659312656789304952e-02
1.002469621421533535e-01
-3.802358060987213323e-02
9.121560316782989508e-02
1.536161806177165079e-01
5.668063139739262790e-03
2.435517044318995517e-01
1.712213708666743550e-01
6.436693482031147218e-02
2.225439946506961308e-01
7.568486037163507651e-02
1.360923881172818872e-01
1.412708355165515905e-01
4.441140741934432312e-02
5.790215541398398280e-02
2.193526415702986565e-01
1.984167500346360469e-01
1.732359331173735362e-01
-6.073189270360589143e-02
-6.409164040700432441e-02
1.312694948856547306e-01
7.092909126411084397e-02
1.699088662163975305e-01
3.791487649055004516e-02
2.156890391446958377e-02
7.797599261885193589e-02
2.045611900573830189e-01
1.428599085288932424e-01
1.049946472577763940e-02
1.033007070388952259e-01
-3.866599782464744117e-02
4.425458802698863797e-02
2.199865874634609475e-01
2.310097227095342931e-01
3.801420474079816175e-02
1.385989831207172784e-01
2.415917567256563314e-01
3.022203264358264141e-01
-9.393233670954431735e-04
1.789795761736369395e-01
-2.907832563144583521e-02
1.921487045086607837e-01
8.381926307538023480e-02
1.176114259690727304e-01
1.011368381865014321e-01
5.058058706786314196e-02
9.856720832234566743e-02
1.635323409727643118e-01
5.726959494182239790e-02
1.710924029896894738e-01
-9.927660566314444601e-02
-7.703339335487294215e-04
1.002189962697440095e-01
1.240369470871669766e-01
1.574381627006753714e-01
-6.513282472059810091e-02
6.912055348185480730e-02
2.702284764323469313e-01
3.721373286519470969e-01
7.891943329439538024e-02
-8.337598217159847280e-03
1.282881390692541812e-02
-8.107235603607132468e-02
7.233965896283880981e-02
5.039561216706136410e-02
-2.180123043162965346e-03
-7.905356030839610915e-02
3.392783281699311010e-02
-2.772100133309249315e-02
2.687489387980587091e-02
-7.490864321612647481e-02
1.781367842747445529e-01
-7.172029498210361065e-02
-4.373654977431878227e-02
1.017604756377511049e-01
4.939698620653190653e-02
6.175910638215677956e-02
1.773363815161327905e-01
1.806389022303281633e-01
2.181605345323086032e-01
1.580094668878026520e-02
1.933600856864161055e-01
2.964260549514640131e-01
-3.148174002745598998e-02
1.952956934938303302e-02
1.548337909456792560e-01
2.083634035475049884e-01
1.687637939473935478e-01
8.484583944999060656e-02
9.833449104307270816e-02
9.669370686776687651e-02
-2.908085661888075435e-02
5.848154656617614300e-02
1.338802730790335238e-01
2.086457430678960168e-01
7.095161754091121320e-02
2.084220159043473353e-01
8.137232931784788015e-02
9.469007714208972637e-02
4.425472820552200232e-02
1.187315645327607777e-01
3.273651966669466340e-02
1.561307698222491602e-01
1.284102431330046146e-01
1.251153797029721793e-01
9.731718444696360604e-02
1.106941926428041401e-02
1.032466378461164985e-01
-9.892259558646698814e-02
1.812108338919845574e-01
-1.166394961901540267e-01
2.157717000760744214e-02
1.474190558498109094e-01
-8.539071124536172508e-02
1.911696246242869379e-01
-3.536103643435925536e-02
1.698006128761478661e-01
1.592503354093987022e-01
2.813351608504169876e-01
2.069000278650570124e-01
-3.002698614343615735e-03
-3.381737353669043988e-02
8.025385082070327081e-02
-5.114056082479351284e-02
-2.116039201607855524e-03
5.154145235848121842e-02
7.748705057286503495e-02
9.674710408872391754e-02
2.650105775104770189e-01
1.208727799389787971e-01
-2.480496651333782832e-02
-4.097193674610014047e-02
8.042243095375919970e-02
-8.549589150142090921e-02
2.570338692327331920e-01
9.745293742534191783e-02
-1.969199333663050611e-02
3.671640684261084919e-02
7.118284859691192956e-02
1.072344763896283526e-01
2.081874068341379308e-02
1.478244677164878285e-01
1.582089536610467584e-01
2.935390448407585451e-01
1.818370973718725359e-01
1.385452666541251987e-01
3.252311589711281981e-01
1.787380656776160204e-01
9.509046838233842225e-02
7.274002312909905177e-02
1.269169301227633384e-01
3.183284713178606562e-02
-2.050462826578737241e-01
1.643879074943043472e-01
4.456132856610089954e-02
4.121558157187914240e-02
1.338947034427926952e-01
1.222356767022394902e-01
2.129214530847853282e-01
-1.661940956307119965e-01
1.448915046176103838e-01
9.797832978540967075e-02
7.315668090046556493e-02
1.124141139638501902e-01
2.616256608762993485e-01
6.494038677389979419e-02
-7.602114430839729264e-02
8.129980503028477745e-02
1.548842354456840542e-01
4.282164507290651956e-02
1.360320918878083624e-02
1.135473734847687877e-01
1.791513591126361049e-01
4.445671409568793808e-02
7.216884338497542295e-03
-5.627061494302043609e-02
1.269079654917791844e-01
1.223767916879192619e-02
3.347952994925772890e-02
-4.977990072157720269e-02
4.681666027863592983e-02
1.337143627711552263e-01
2.400897450594109972e-01
6.379539695694927404e-02
2.971994670505281877e-01
8.243227088519520379e-03
4.984568268132727464e-02
9.932777265839976000e-02
3.743328538941344263e-02
2.380559973181483602e-01
-2.306311508854714393e-02
1.761769116562468818e-01
1.148714434687346797e-01
1.569098640104470976e-01
-3.238511157587412037e-02
3.631551252052619971e-02
2.061802058800518145e-01
1.051888546236700167e-01
1.137175683627439371e-01
8.798031710289264118e-02
1.200753501914932075e-01
1.873988937500483537e-02
1.017731113106545154e-02
9.394614247207620783e-02
1.396618922505800109e-01
-8.268344498005181231e-02
4.474130681906857837e-02
8.151274872684002859e-02
-8.268173224810798638e-03
2.275248828285544173e-02
-5.442935287809254341e-02
2.216524803564269286e-01
2.999728655583708270e-02
-1.829013350496298818e-02
3.051836329672907855e-01
9.527926479246767721e-02
1.016716105017188426e-01
-1.079468958700789266e-01
2.515821072776267334e-02
-1.229268525707057913e-01
8.747592651417865350e-02
-1.621694225041059312e-02
2.767581817566569513e-01
-1.322187064429495296e-01
4.530955528430774537e-03
2.256495193569933999e-01
-1.126799409160657850e-01
2.066021793668793016e-02
1.666562994378260887e-01
9.444812489702777980e-02
9.762223023221380802e-02
5.178015111115254893e-02
3.322922823914339907e-02
-8.644143628114372979e-02
1.041373101037028348e-01
1.616057434493478329e-01
9.856735228099866575e-02
1.048499395753977881e-01
1.793764880225369174e-01
2.015366000274841640e-02
1.163935178489085287e-02
-2.568404889453243523e-02
1.547795125060619781e-01
1.386944440822277524e-01
9.803802124666581574e-02
1.520280413925452490e-02
2.399130567119555912e-01
8.842879813144484402e-02
2.203067376354584939e-01
2.842731211335501607e-02
1.198833310323901835e-02
1.493260037018038222e-01
1.474223484406091134e-01
1.660791859093091738e-01
8.950133602396061205e-02
2.126261513943034087e-01
4.955600820868007184e-02
8.943112880985551461e-02
-5.464628648112540565e-02
1.374112982128598559e-01
1.708532194129260273e-01
1.374089964653472107e-01
9.485629623213376327e-02
2.054408734069887443e-02
2.622528943393040990e-01
-2.376074486687931864e-02
1.984103767372566440e-02
2.468869494221755112e-02
3.207952876392997782e-02
6.924671239219454266e-02
-1.151892525945372170e-02
2.014044981796390688e-01
2.335491528651099657e-01
3.304035372674853088e-02
1.312401451277926956e-01
4.592709967637879920e-02
5.668325766305442465e-02
4.683888488889818152e-02
7.446420843816164981e-02
3.698717992356475442e-02
4.247180724068386204e-02
-1.426507162932539041e-01
-4.342478203144763127e-02
9.620777212128622802e-02
-6.374422217518223299e-02
1.994597976321000332e-01
-1.233173436545937918e-01
2.064825150971540679e-01
1.328767122537266032e-01
1.589675691024002857e-01
6.236948408780075559e-02
5.120259403632920758e-02
-1.198951040570903070e-02
2.430867388162380183e-01
3.776711671995504616e-01
1.839261164630313083e-01
6.686291025377527619e-02
2.013842356800618627e-01
-5.306117019271520963e-02
4.511637918378325757e-02
1.861142647811432904e-01
1.686845403466455950e-01
1.248406839747489838e-01
4.937437945883402235e-02
3.570066829117049534e-03
2.684434648950668190e-01
2.201939521968879210e-01
-1.392654468962012393e-02
3.391324841844536864e-02
1.325030715967223660e-02
1.442653849349589679e-01
1.280265165842820463e-01
9.776460014150456512e-02
2.129093889383213423e-01
1.077282041414491798e-01
9.472470940694573127e-02
-5.260481625429621472e-02
1.983760030822415699e-01
-1.197088618022894430e-01
1.356800088294309869e-01
1.544001615641988900e-01
-8.857139530536617400e-02
6.787220830934390103e-02
5.380936284309513484e-02
2.045567373760050212e-02
2.313819879423583137e-01
6.255965840954572088e-03
1.275498116154652473e-02
9.934778185062437261e-02
-7.090937064380098409e-02
2.096954904366614969e-01
1.637896161131125947e-02
6.967487849267026134e-02
1.022292588838964456e-01
6.152554334461737828e-02
2.080168466467022803e-01
-4.208125196722523054e-02
1.020277135413861225e-01
4.396592584192509506e-02
1.446684767412502737e-01
-3.192564455209390140e-02
1.162342062517435770e-01
2.507627412599982009e-01
-2.003317236748380081e-01
1.168921985456534973e-01
7.789351166443282681e-03
-6.215767388475217092e-02
1.914562234474326968e-02
1.768526092845714992e-01
-5.986508268862456017e-02
-1.323541859014256417e-01
7.928828268713583594e-02
1.797291317174417036e-01
2.201783843003307650e-02
-7.097145701421692099e-02
4.888068476947332597e-02
2.711267806838753291e-02
1.850371305279182033e-01
-3.115266238823183320e-02
-8.690388177347577181e-02
2.798266895676352339e-01
7.613025995292450887e-02
4.219612021609443764e-02
1.003187033492606434e-01
5.909763159223574425e-02
-5.866234494208803774e-02
8.726390245115824007e-02
-1.302849517286808201e-02
1.942484240261085210e-02
1.506944080703857547e-01
8.986420605748683677e-02
7.330229182573483326e-02
1.328062121356857750e-01
1.780768843413461644e-01
1.981515740879603027e-01
-2.364640440606539940e-02
1.308174602195495695e-01
-3.221491498228573613e-02
5.517905361775123085e-02
-4.941061699815313402e-03
-1.509642054350392171e-02
2.410073934291404041e-01
5.976101342094305990e-02
1.693946503932581282e-01
-2.572050559646940626e-02
1.512750514050030248e-01
4.649251309315809155e-02
2.552472380240876360e-02
8.457774917583565921e-02
2.448497452140636355e-01
6.430901676043890292e-02
2.064884825543919777e-01
9.243769861718641179e-02
2.812426677224006966e-01
3.574818473210296665e-01
5.765417906936716463e-02
4.304051669892283716e-03
8.021085644235281809e-02
6.214550474409442915e-02
5.754916032434782835e-02
-1.165842748974075527e-01
3.268139761697907986e-02
3.905044737147872480e-02
5.542720009387903241e-02
1.078921067930536104e-01
2.406127173346352954e-01
1.540082517822555785e-01
1.076889375662209991e-01
3.986556397032086502e-02
1.370113980443035118e-01
-2.036416686579209379e-02
-1.364334745873916899e-01
7.715145774749555818e-02
1.021084697997982904e-01
4.603936653220067760e-02
1.570124708179066464e-01
3.821206026962659791e-02
1.142080203167035735e-01
1.089567464223901994e-01
-2.177549143813090060e-02
-8.342923948539755774e-02
2.701133258882650046e-02
1.821081106508316283e-01
1.389656780973786421e-01
-1.828498239859346897e-02
-4.166893593892141701e-03
9.277559264923553040e-03
-5.779258601642932314e-03
1.401504667683235172e-01
2.592459565354110484e-02
-6.078506872651770476e-02
6.157566412393579436e-02
8.648143411763585531e-02
7.543281302623958129e-02
1.339770961882883471e-01
2.554800730109650364e-01
1.665222678706931858e-02
8.203937046236768615e-02
-5.290684330129050150e-02
5.537661217977093986e-02
5.070059180413905714e-02
-1.355234208041974919e-02
1.391266191883351599e-01
3.945265074166156433e-02
1.438102605414259827e-01
2.352432280367259543e-01
7.744374208850296482e-02
1.734980280516631446e-01
2.528185529744600424e-02
-2.472797422277425716e-02
5.385191714077766645e-03
1.797097932425556210e-01
7.335789556665309186e-02
2.090613983772568185e-01
8.702225802904864360e-02
1.412904841361028452e-01
2.043889189820939645e-02
8.514974206942096946e-02
1.358682178503752280e-01
6.553119149884731320e-02
1.704565827919024001e-01
4.948439038009468105e-02
1.835274824079122791e-01
-7.262145873517661387e-02
-7.017216439483653367e-02
1.326796891156537539e-01
1.188878820788478452e-01
-2.288057566200595028e-02
6.716162717795612358e-02
6.148333109748607694e-02
2.764809059150172832e-01
9.236094448216561337e-02
1.089234030779164669e-01
4.551803758812702355e-02
1.669482802839345748e-01
1.062515512302290854e-01
1.314320686831763063e-01
2.567314103477969650e-02
2.158616874062803115e-01
1.708177255928580718e-01
1.702410938872405410e-01
-2.083341855420811628e-02
-4.325934122778457569e-04
1.493203696874742525e-01
4.886061583979320333e-02
8.903594471510943575e-02
1.664487552705526952e-01
5.690250693836907542e-02
1.202212929929336593e-01
1.125820606889902514e-01
-8.772702572135145094e-02
-4.175677889325934977e-02
8.957440040310807317e-03
2.411766510926980495e-02
-1.075981222887558569e-02
-4.213322435005027733e-02
8.919540092796961195e-02
6.600740057979578856e-02
1.812018843287919734e-01
1.594784543470741944e-01
6.283152693191965121e-02
-3.088499019050985894e-02
-2.946985678991972946e-02
9.310499748586041624e-02
-2.089981865803364203e-03
1.035984733602038771e-01
-2.349037419501467105e-01
1.418135513819140936e-01
2.520653791461394677e-01
2.602316130816059725e-01
-4.900780817423681934e-02
-4.128727725329642273e-02
4.996014272219310992e-02
7.042746697346038975e-02
1.064344122481472310e-01
1.251944471029966810e-01
-5.292898073080763710e-02
-1.685248200756167547e-02
-1.160501390193863225e-02
2.928098739699861452e-01
-2.976985167503101715e-02
1.523621778473779331e-01
1.707794835743204898e-01
2.009322837880454515e-01
9.317163369673034379e-02
-4.542377463584927610e-03
2.258659059029788918e-01
1.854290892282683123e-01
-2.574322803662291992e-02
-3.606677706823283036e-03
1.542340501033658273e-01
-6.107206168722240092e-02
-1.552645295011610416e-01
1.296021551273011940e-02
9.224983195090440125e-02
1.312248250591626642e-01
-1.173792688004148543e-01
8.123065096090478776e-02
2.504451589168117942e-01
-1.120427937829652776e-01
1.495649667046164075e-02
1.668459892808601963e-01
-1.437907361994681943e-01
5.371709177960340420e-02
7.248183057203091972e-02
1.364856378391545166e-01
-8.108342367468898693e-02
5.084668897043967406e-02
8.422623492067175810e-02
5.345913317402889442e-02
8.786219030821197651e-03
8.878547352936243253e-02
1.753582425945453549e-01
7.816939676984002716e-02
1.678510798641612289e-02
2.026152436522576927e-01
-6.630590648875939186e-02
1.204479204086273680e-01
-2.153340557745962724e-02
-6.892468614118345271e-02
1.506575404262450180e-01
1.659954418935056519e-01
6.444088364991780449e-02
-1.247003849495727790e-01
-2.991700586804053180e-02
2.211973691477741033e-01
1.511682106880802290e-01
1.158135824008551806e-01
1.685169377925126444e-01
2.082937803859137293e-01
1.924590933661028402e-01
1.239855831053593982e-01
1.543843801146707329e-01
6.020478433362819876e-02
6.778107432409108402e-02
1.287647321840846293e-01
7.120818044890175891e-02
1.502658098256749453e-01
2.371986682747089792e-01
1.757549085278200252e-01
1.178163274482045969e-01
3.387196960029614790e-02
-7.709566096844790162e-02
1.428581973777520164e-01
1.873651295706559028e-01
2.179250274946283733e-02
6.199052938855140193e-02
1.129717849603528168e-01
-6.598380205684317712e-05
1.175805374086947852e-01
4.458471892373799816e-02
-8.814011091759804684e-03
-5.807204350835298845e-02
-2.453014379326386857e-02
2.743799604983540585e-03
1.556843269505451266e-01
1.272120086593613031e-01
2.410053682396308683e-01
-2.307871233218095064e-02
-7.996742196687896265e-02
2.274073280373474781e-01
-2.132188282444560379e-01
4.943834826889681455e-02
1.614870622163581126e-01
-4.891923103587285382e-02
1.717729828644158352e-01
3.160088752523368405e-02
-1.262699631201707196e-01
2.090856546908081703e-01
8.801470016957303744e-02
2.185098709066587153e-01
2.200254864388025977e-01
-1.031914026643826060e-01
-2.150864855994730207e-02
1.622950671333176775e-01
1.250927478460192865e-01
5.125566212804778810e-02
1.381257972629943986e-01
1.306554788767075315e-01
2.926280584563567544e-03
2.593659523078175461e-02
-4.760354159069203617e-02
3.804845806223295518e-02
1.481389027682264159e-01
7.330036844573339927e-02
1.340275730194276371e-01
2.650409765787816729e-01
1.081959516916545794e-01
7.174441783229233704e-02
2.570119554755260216e-01
-9.042012297031401524e-03
5.808046065850283601e-02
1.214026200523821153e-02
1.591322175235287684e-01
1.340198171689078177e-01
1.673672741147766707e-01
-1.026460312155367399e-01
-2.073555396173976800e-02
1.216859975682569178e-01
2.081266361397793585e-01
2.202380308578724688e-01
7.193118918773627746e-02
4.058269514473841766e-02
1.603495457394782664e-01
4.227187661348857928e-02
1.043543917922065689e-03
-4.173099445047356859e-02
8.612395630611176245e-02
1.590002720058930619e-01
3.408758450213167368e-02
1.313394456547770650e-01
-1.249113868818162165e-02
1.939895035294681991e-01
6.742051258011745596e-02
1.169034093534618984e-01
1.521767600767539308e-01
1.838361994169178115e-01
1.611590035127637155e-02
1.238197307142814285e-01
-6.218154095813574478e-02
1.728358500023158273e-01
-3.160757734433398275e-02
8.917124464003556295e-03
1.506191975927300142e-01
8.842001726802085904e-02
1.561199194966476356e-01
4.029365350648807242e-02
1.029594353079365532e-01
1.974995238842995882e-01
2.109632295649400413e-01
3.525252259833644430e-02
-4.324145441898610831e-02
-2.877695258670263934e-02
1.096271054119736521e-02
-2.434468949260384929e-02
2.077017063524781715e-02
1.043256744915730116e-01
1.489943515940739260e-01
1.717729974181297914e-02
1.398314152332238991e-02
7.019896617978618747e-02
2.170851375946404871e-01
-7.295717950829218312e-02
-3.774597665631737597e-02
1.853012458574790911e-01
5.647796609633880249e-02
4.897559269128518716e-02
5.824212141415025662e-02
1.122915071529011072e-01
1.009449825813963503e-01
6.407874842658473069e-02
1.154442166415722282e-01
5.498284935721963612e-02
2.272522095790324159e-01
1.308206722025294921e-01
-2.729460130505192983e-03
2.872865871072337318e-02
2.880206690982238249e-01
1.582208430051779829e-02
8.847497788933933460e-02
1.984531469625461231e-01
4.177930700220008897e-02
1.463808921623133696e-01
-4.289623183221068226e-02
4.539315711038022227e-01
8.292846833228159631e-02
1.914527063490112369e-02
1.033976108357708562e-01
2.217525885321929013e-01
6.471347564585823442e-02
4.163481222322917841e-02
7.753000062667278480e-02
-3.371245325298154183e-02
1.037863161758842412e-01
2.122727702509929482e-01
-1.451141299464107220e-02
1.113965352313904533e-01
1.814044389582767369e-01
3.543543676738039050e-01
-1.316778394565833177e-02
8.356840881108196228e-02
7.546465928980158888e-02
3.644318193520837412e-02
-8.332491373877085050e-02
-9.528647906535278600e-03
1.663163989157226408e-01
1.678739612222409083e-01
1.410775859892001716e-01
2.059227546602300507e-01
1.042870807418920798e-01
2.351100479691629053e-01
7.908951867215394116e-02
-6.151844804695438818e-03
7.223810548846074098e-02
3.565314450563550341e-02
1.894351057066595567e-01
9.661345919837412144e-02
8.124118934983316775e-02
3.189214081774138787e-01
1.240154920409857753e-01
1.466366437376604992e-01
1.794874799906263363e-01
-4.667771788672424316e-02
1.198416699179273015e-01
1.621071879875156940e-01
-9.487699197818130759e-02
-1.454436747763040438e-01
1.059390374131179008e-01
1.258103654553254513e-01
6.741563388046781236e-02
1.411406723777131333e-01
2.016477994519625117e-01
2.488178469805054083e-01
3.994471328781987879e-02
-1.223462808741474506e-01
1.185116530582733113e-01
-1.573428289753098230e-03
-2.995976052500393116e-02
4.346164747001603906e-02
1.220031417860597545e-01
-1.766829119709675544e-01
-6.337153938325554292e-02
-1.299224570355828889e-01
9.099453048016627188e-02
-6.126833627058474174e-02
1.589248738276999307e-01
9.071549378728713253e-02
2.466672127865867370e-01
1.837766946050611860e-01
2.565875064737762057e-01
5.470546274935033509e-02
-1.495737444831832241e-02
1.019489905421568365e-01
2.513911049713918877e-01
-1.475530556953165706e-01
-1.494656949793241041e-02
-7.056575319625392473e-02
2.701448710203033579e-02
3.023431044381227895e-01
-9.658972448569355662e-02
2.417203964188318344e-01
2.935458242527688028e-02
9.522647456560585921e-02
-4.047406631819772116e-02
-1.978443756837620915e-02
9.188315731339397052e-02
8.610533764584160643e-02
-1.717060400804357179e-01
7.849681990571022450e-02
-5.371479608761912938e-02
1.371307119678550346e-01
-4.415620689833650581e-02
9.698701574600893105e-02
1.243640449495663214e-01
2.822989080818561272e-02
2.674502229084212424e-01
-5.680295989444884841e-02
1.980054703468732136e-01
1.786616800824439300e-01
7.970768965203314793e-02
7.587062913874903503e-02
2.569340399354554938e-01
1.083428133677162564e-02
2.943233103186710942e-01
-8.716658610663374773e-02
8.332760927420437835e-02
1.211168325223608011e-01
-2.988880324649147158e-02
4.761229455435372210e-02
-1.158033152905913604e-01
3.797171357684637344e-02
-2.418641005317113957e-02
1.245146465256043167e-01
1.815568119515255097e-01
6.640055609691788985e-02
5.271247696361806845e-02
-7.422090458630015153e-02
4.813298552244683892e-02
1.787798035738550617e-01
4.706322190517668591e-02
4.777882164099486045e-02
1.226413269715990323e-01
-1.345399465166031289e-02
1.560994713922839172e-01
1.193428730090665968e-01
2.885953661781461843e-01
2.145674374245323812e-01
1.869300806129606529e-01
1.726713656977629519e-01
1.848566879426846443e-01
4.993078538466786537e-02
1.105762288414709749e-01
6.904653880410588362e-02
1.059545064154992222e-01
-2.264734705605207232e-01
6.079734554842730621e-02
1.279871292149959150e-01
1.812062110850352625e-01
4.161928286384292131e-02
6.659054113565067434e-02
-6.507591454325387104e-02
7.732125643377313340e-02
3.186580424627990515e-01
-6.127546684997985105e-02
4.130484358371522280e-02
3.547580217294142579e-02
2.014025198813056972e-01
2.024974247376507552e-01
6.631548540594299490e-02
1.696688502962957479e-01
1.355451647748231458e-01
3.908394612367336318e-01
2.181507911019377466e-01
4.084587138804347817e-02
-1.944868267647549553e-02
1.572206976125278266e-01
-6.173245938086469736e-02
-8.143551701168631751e-02
2.205411902464478324e-01
2.065658864519417381e-01
3.556094025764143518e-02
5.813468211597173918e-02
-4.084227279662382137e-02
1.154408892125153158e-01
1.348138970796316227e-01
5.286497604852839760e-02
1.854699886691921207e-01
1.413383663644221522e-02
1.897610883281899974e-01
8.200907646280627961e-02
8.130051358727159727e-02
3.322209582017991714e-02
6.956652418979428210e-02
-3.367028012130725279e-02
1.107549859764211941e-01
1.260639418375887610e-01
1.301195145472053838e-01
-2.532017466940447714e-02
5.420699343570566098e-02
7.531868021086471354e-02
8.687323327480113433e-02
1.109416950705374300e-01
2.687247182996200801e-01
7.372138862629934453e-02
1.464974829274036106e-01
7.570115001039688651e-02
5.590503295785505256e-02
8.703710919638668608e-02
1.219114794629539145e-01
6.544292033468326886e-02
3.011486563976560893e-01
9.929675861418128802e-02
1.376117941443316395e-01
2.185604160310243571e-01
4.612978271404219455e-02
1.216078073824526651e-01
2.086921780373051649e-01
-1.557338039293531262e-01
1.616998496643593519e-01
1.125395502153033467e-01
2.577414040794367978e-01
-5.663612879317320159e-02
-1.796701485840969392e-02
1.382740279181036980e-01
-1.110937687854126471e-01
2.748443835107654276e-02
-1.996759362813058103e-02
1.337095763294234019e-02
6.141011693528403148e-02
9.182770448501756388e-02
6.203911695185053421e-02
-7.920070432222761636e-02
-5.223976193885566943e-02
9.530899108564146183e-03
-9.366507510185834162e-03
-1.041803401006343582e-02
-1.352102490822566783e-02
2.921758679941974801e-01
7.728794983069010860e-02
3.676728024876380063e-01
1.952984944732993333e-01
1.418519515902443850e-01
-2.512740301611154914e-02
1.238735310148616070e-01
1.672476506692662512e-01
-1.764033663778284411e-01
7.919541247989159150e-02
-4.914514367056580652e-02
1.109979409817329205e-01
6.705440564142844950e-02
1.681709653438570595e-01
2.113508212741199155e-01
2.205832400154330575e-01
4.471525422873372235e-02
-9.607931033904781870e-03
2.469645715596239244e-01
4.733871561743785428e-02
1.726300329976483416e-01
9.425249811777999809e-02
2.516674690681568183e-02
5.698955088032580524e-02
-9.906288105481066142e-02
2.126813175515613885e-01
1.291736339328307670e-01
1.098901454550520601e-01
-1.974588937711450887e-02
1.277983384332890826e-01
-1.388263178350575000e-01
1.426349512055816449e-01
9.931378706863626393e-02
-2.070880305601244808e-01
1.314789201770943106e-01
-2.862390115549899583e-02
5.996552400005652345e-02
5.943648625004553654e-02
9.230550904403707346e-02
1.599157772857431881e-01
-2.038607056949207075e-02
3.360430515030080612e-01
1.914532820415240089e-01
1.233114164879804547e-01
1.951813126826959510e-01
3.119650405933250270e-01
1.973855450145522994e-01
7.084120929762401098e-02
1.417701066260751153e-01
-5.315920205239153817e-02
5.863397548230180056e-02
5.055917728371137065e-02
8.948987948505897350e-02
9.151208295811935622e-02
-2.194890105269149405e-01
1.274325395738183930e-01
-1.935297806058754178e-01
-6.499086864409575615e-02
3.070791117366520329e-01
1.086708699625507923e-01
2.168004920592763174e-01
1.342097733837321338e-01
1.868708068357052277e-01
-4.035463678944679888e-02
2.379536477980245812e-02
1.166063818598749163e-01
-2.413730796594493189e-02
1.154540326251396465e-02
1.809976282325967689e-01
-2.718083902274197328e-02
7.734433709104993060e-02
3.950114256327643125e-01
-1.355874935124338765e-01
2.338979212582505407e-01
1.065536580651997856e-01
1.197447787985100182e-01
-2.049907113040106560e-02
-4.971791897847720187e-02
4.931753346655421560e-02
1.026971186177028095e-01
1.210968344108582229e-01
1.834077721261531679e-01
5.025775132296764203e-02
-5.940200232156980786e-03
6.816258211178558013e-02
1.067200231097921170e-01
1.257918722535842637e-01
6.122985337978114478e-02
-1.076219267236725591e-02
8.025248346637722796e-02
9.169581370004978305e-02
1.425906553110471431e-01
-3.671809575092250394e-02
1.112528272967498733e-01
2.227739314539576854e-01
2.359948183748649536e-02
1.853873442879042377e-01
2.011358068198401683e-01
1.033349270717026092e-01
3.830689693654420330e-02
-1.500238806015738169e-01
3.389870955942260178e-01
-1.415122948682916160e-02
2.322120216887538224e-01
1.946981526324874645e-01
7.871920653964124825e-02
1.032651048346837908e-01
1.492822992188169370e-02
-9.891738938463473518e-02
1.943408493083884359e-01
1.727657872350212009e-02
2.180810857021633908e-01
1.583920448482376009e-01
1.530363111123607400e-01
1.409728427280650398e-01
-2.247632075332459123e-02
1.068348053737424030e-01
1.811347092943176307e-01
1.591485108664914550e-01
1.907245243847391081e-01
-2.674729510082489436e-02
1.459450949649033769e-01
4.163696044910975003e-02
-8.633325380081727229e-02
1.218901115247097156e-01
5.478243436353204265e-02
1.379519359386705002e-01
1.379731311902261393e-01
2.144799940718136178e-01
3.085183916833311724e-02
1.017127277989822859e-01
1.346799241612000320e-01
-1.306350278449788793e-01
4.111411291870376017e-02
7.605375371779253546e-02
4.233624056022036730e-02
1.049753649023876523e-01
9.725569540536217750e-02
1.120779226949269181e-01
1.069037982399527603e-01
9.841552425684180205e-02
-6.090492461256484524e-02
1.169697366456045051e-01
2.465006558335544051e-01
7.251373603060616568e-02
-1.632817225268877737e-01
-1.660322771126487851e-03
5.360537275519843686e-02
1.534242039964307802e-02
6.935832787958114143e-02
1.517387337154030569e-01
-4.965394877602949397e-02
5.087385481295417233e-02
2.730071211491079675e-01
-2.031560663567309744e-02
8.496395321729630079e-02
5.076196109202549961e-02
1.120358603411775178e-01
-5.221084019813011096e-02
1.920942166012700181e-01
-1.152802185737683560e-03
-2.919819970475237558e-02
1.234829756367575998e-01
6.182330373187854000e-02
3.529476058233506353e-02
-8.379140574154722576e-02
7.371182955961826100e-02
7.954499816523992461e-02
5.918999243745121791e-02
3.396824066949478971e-02
2.507541157554165068e-01
1.463960311828072236e-01
3.540054835416221735e-02
5.830755742218913379e-02
2.169766618409614267e-01
-3.020052615433155285e-02
1.929853946427629585e-01
1.656549970411985012e-02
1.618119933370053554e-01
1.363994813737501033e-01
7.209059570263688654e-02
6.660273531790180668e-01
1.082862528410791558e+00
1.025559314023645419e+00
-7.590203088568195366e-02
-7.816278717159316214e-01
-9.594610276346855482e-01
-8.208397902799174917e-02
1.270790080193562044e-01
8.766724269359291721e-01
9.084114361387396475e-01
-5.491484290723127604e-01
7.324460311600728968e-01
-7.346969457624588085e-01
-4.162033452600218952e-01
1.384831837006781918e-01
-4.024960959230993174e-01
4.342004213304963556e-01
-8.032890231399948400e-01
1.043572666963771045e+00
4.593393112277832646e-01
1.140394277777984300e+00
6.475394697693059864e-01
-1.247800910407286940e-01
1.016848851945775900e+00
-2.301610489129866655e-01
-3.621654626475125094e-02
-4.717984453914159659e-01
5.413416750691717461e-01
3.176700645892286401e-01
-6.435447076688352031e-01
8.582185017104205782e-01
-7.263095037383596742e-01
-4.596935856670121279e-01
-1.359571177864550284e-01
7.035160420634962719e-01
-2.542431117088541082e-01
-3.338250706790051314e-01
7.503697217244746920e-01
4.375864269716150390e-01
5.640865128968424180e-01
8.790030204081964449e-01
9.764196146665155007e-02
4.399813333012146388e-01
5.564875786878729913e-02
2.193246694057431057e-01
8.340748110780585867e-01
8.217408117006314017e-02
-7.350288009370582465e-01
3.415625274663076083e-01
2.313232235131954528e-01
-1.098929803724176812e+00
-7.804105183378816646e-01
-5.383819132591113332e-01
3.971675230215510055e-02
4.291855921308748711e-01
-8.705960061909505388e-02
7.827380463622526374e-01
-8.091901611987374343e-01
2.006903268568265286e-01
2.313071060183372052e-02
6.404415065050216294e-01
-7.755377336821058787e-01
-1.208908954630908555e-01
-3.511088645027778399e-01
2.601899130822491468e-01
7.478117518059814728e-01
-5.316246152248831347e-01
3.692110888990845496e-01
3.263195449648215174e-02
-2.102461648344420841e-01
-6.022407909768440204e-01
4.191138971102627286e-02
-6.580136312633013684e-01
-9.036403267607793222e-01
-5.930177009180389591e-01
1.739642697446769637e-01
8.845796588554120099e-01
9.705350392388001346e-01
5.103413883506759952e-01
-4.129187045954049173e-01
-9.351601866977791166e-01
-1.249062691803290992e-01
-1.073259064546940866e-01
2.969486068592642192e-01
-8.116506838095569609e-01
2.170834962015374403e-01
-6.538324131393471461e-01
4.173987389679127968e-01
-6.523202661976067462e-01
8.243545973654421710e-02
2.392869762750027829e-01
5.059207779076622113e-01
2.088074801657539836e-01
-6.765167069845359205e-01
5.120376621113925664e-01
1.070063428989282750e+00
-2.236006772698547473e-01
8.510432328149045711e-01
1.609959450568690387e-01
-1.132402787598605215e-01
1.021592781032828468e+00
8.200238228763604420e-01
-6.065704614167806152e-01
9.211513850395905978e-01
-2.957086962370430450e-01
-1.015571612767614679e-01
7.049528033558525308e-01
8.091576718027402304e-01
6.002934062681718197e-02
-6.667131107049641958e-01
5.442211355579682497e-01
3.547974206431381283e-03
5.705329945499679756e-01
-5.462643221615564038e-01
-9.156880125403372706e-01
-3.894100939116381666e-01
1.298845593856319813e-01
-7.810743540022413445e-01
-7.040792742270537419e-01
1.067996612758212560e+00
-5.538951974885322205e-01
9.749502165778975993e-01
-3.871521994401759814e-01
-2.319239784304725216e-01
-2.573781963459467192e-01
1.092130254347575491e+00
7.452586415257821395e-01
-2.483633227737828408e-01
1.037918976681737382e+00
6.193136130888451385e-01
5.365156143592220150e-01
-6.575923156794746260e-01
7.351439932510592246e-02
-4.652002598897896912e-01
-7.234581055219384549e-01
7.334742946959669219e-01
-4.004295904143020945e-01
-6.845040544790985670e-01
5.452621603991096577e-02
-1.341576905226357086e-01
-5.745625364091814236e-01
-5.928868883806197587e-01
8.109319685629320373e-01
-6.184163842381676934e-01
-3.944206840902683142e-01
1.015351650223176083e+00
-4.105834235866887560e-01
-3.210756422041011193e-01
1.010111533813516482e+00
4.496502694786125298e-01
8.482309370086346112e-01
2.973866125414485473e-01
7.862708733590063614e-01
1.952764645168817981e-01
-8.542707222281523682e-01
5.366483984210509428e-01
-4.206735248108424141e-01
-5.995666164642318163e-01
-5.046292769625507768e-01
-5.055932222158471268e-01
3.783855487879673740e-01
5.038377609197738360e-01
-2.729365401552247272e-01
-5.085746796519413637e-01
-3.895514331609223335e-01
-1.468624918976342564e-01
1.082764662913286324e+00
4.257079383183833693e-02
-4.980376543473795659e-01
2.891754394729386113e-01
7.215552124150969027e-01
-8.249378474799767824e-01
-5.164706175297875124e-01
-6.646540089163301968e-01
8.154982602872755393e-02
9.086018234716628506e-01
-5.206829997186744885e-01
-4.184488533026536894e-01
-2.258884776405156725e-01
-7.762408138319232265e-01
-6.784806405250888295e-01
4.701152983624783954e-01
-1.872015891556508271e-01
1.105962213437748032e+00
-6.764945962373353217e-02
1.548684325190953226e-01
8.121764555608921299e-01
1.057355482259211277e+00
4.784467912021784231e-01
4.356858535986009584e-01
-5.377709969256327938e-01
-6.118719055710964971e-01
-6.928903385454150410e-01
-6.937122059452856260e-02
-5.246317676368582594e-01
-7.005698353832986447e-01
-6.001804107413007960e-01
9.160628804086730081e-01
4.234081097322879295e-01
5.002818346048997222e-01
-6.748285603069188454e-01
7.261457390891254970e-01
9.994096560330349988e-01
4.947187929298990650e-01
-3.000780912710668963e-02
-3.965455916838227512e-01
-3.714755942084957407e-01
-5.354121527813480164e-01
-1.949507692554028337e-01
-1.560960050016327316e-01
-1.456050526169268625e-02
-5.200929520251039717e-01
-7.772965679066078382e-01
6.138836983541061665e-01
7.123433704956771972e-01
-4.766484863773794434e-01
4.303197368668358891e-01
4.010863212400391786e-01
8.888549778564122650e-02
2.026145326628773502e-01
3.986108954889256983e-01
4.498987094056773328e-01
5.431852054974911637e-01
9.590226461918538448e-01
-8.190276855892147934e-01
7.148678680172164401e-02
-6.697122099963921382e-01
2.727126627281993843e-01
-2.446419759559856355e-01
1.637589393376026325e-01
7.442583621806436733e-01
-9.143079744692894639e-02
-6.993054355818700829e-01
9.595217947080392218e-01
8.702716137511883332e-01
-4.838817193939278227e-01
-6.674958095346232856e-01
-3.127730895929965449e-01
9.990213312517302879e-02
9.719357039323353042e-01
4.960437494664589053e-01
1.109025556712662369e-01
-8.060012470854676092e-01
-1.945337973585374580e-02
2.071859012797781507e-01
-2.465224570185834962e-01
2.973982027170382625e-02
