-3.679692690630182589e-02
-3.565484528822248853e-03
2.849542139290093742e-02
5.877141513998943023e-02
8.725589636524623549e-02
1.145500400931556972e-01
1.416306471854263116e-01
1.694745185037665747e-01
1.986828290726607993e-01
2.292489785449120521e-01
2.605585912016419314e-01
2.916216654867479496e-01
3.214481998441276467e-01
3.494238185549026210e-01
3.755419212718759114e-01
4.004036830195318863e-01
4.249859046595789724e-01
4.502653870537257075e-01
4.768433052264565153e-01
5.047130588305742682e-01
5.332602721472006202e-01
5.614949436202331112e-01
5.884270716935694479e-01
6.134422806483309509e-01
6.365339701373207149e-01
6.583033151850232745e-01
6.797271166531470010e-01
7.017821754034002657e-01
7.250696664602674923e-01
7.495829894765518864e-01
7.747077687333749907e-01
7.994540026746338457e-01
8.228316897442268241e-01
8.442264542232748026e-01
8.636316957645812087e-01
8.816485893926304662e-01
8.992539359691307244e-01
9.174245363557903543e-01
9.367615655770944461e-01
9.572584232858454278e-01
9.783007337631646205e-01
9.988984954529506188e-01
1.018061706799100241e+00
1.035175992082734586e+00
1.050234750956657637e+00
1.063839158445353927e+00
1.076966015410530719e+00
1.090592122713896828e+00
1.105318655379937676e+00
1.121139013061455580e+00
1.137438820039571308e+00
1.153228074758183785e+00
1.167516775661190165e+00
1.179690547029711434e+00
1.189742788516551242e+00
1.198274675146193680e+00
1.206263007780346896e+00
1.214684587280720152e+00
1.224140588671797758e+00
1.234624411606381811e+00
1.245521680365594852e+00
1.255842393393334033e+00
1.264596549133496728e+00
1.271169771867205034e+00
1.275555461247261491e+00
1.278354792298150411e+00
1.280544565881580832e+00
1.283101582859260903e+00
1.286627018255674493e+00
1.291114271723625917e+00
1.295948967544235719e+00
1.300141104161401495e+00
1.302700680019020840e+00
1.303013319398215852e+00
1.301199924038740185e+00
1.297999211884851123e+00
1.294403045047487710e+00
1.291403285637590992e+00
1.289616169928876621e+00
1.289050158823379366e+00
1.289105937851452666e+00
1.288808566706224790e+00
1.287183105080826007e+00
1.283630238505608867e+00
1.278158427882607695e+00
1.271383909485539254e+00
1.264298545425343701e+00
1.257894197812960302e+00
1.252787102922105600e+00
1.248985721654814585e+00
1.245890739541439807e+00
1.242527216275111090e+00
1.237920211548956706e+00
1.231470410893330758e+00
1.223186275210267127e+00
1.213684040773482131e+00
1.203955569693916372e+00
1.194992724082509339e+00
1.187411740212976907e+00
1.181221078987354289e+00
1.175821425935994702e+00
1.170237840752026637e+00
1.163495383128579919e+00
1.154994738596007542e+00
1.144744368056343609e+00
1.133360507783305104e+00
1.121835019887831519e+00
1.111159766480863009e+00
1.101950983836115894e+00
1.094217132855624053e+00
1.087358899069741813e+00
1.080401342171597667e+00
1.072369521854320995e+00
1.062664123648264347e+00
1.051293608455462936e+00
1.038874212549633302e+00
1.026397798041714715e+00
1.014856227042647552e+00
1.004865735826147688e+00
9.964347852942497807e-01
9.889640609773074909e-01
9.814786225684494214e-01
9.730035297608050637e-01
9.629394680847274124e-01
9.512948984422510135e-01
9.386860571070925197e-01
9.261048061901914208e-01
9.145430078024882059e-01
9.046168982176983064e-01
8.963349383378567126e-01
8.890978136933169740e-01
8.819305839772074718e-01
8.738583088826582523e-01
8.642816739400219772e-01
8.532091400513331925e-01
8.412569434903084398e-01
8.294169463678874310e-01
8.186810107950104332e-01
8.096653730453932107e-01
8.023784940210704208e-01
7.962210592523957242e-01
7.902181284324979460e-01
7.833947612545059114e-01
7.751516432487736141e-01
7.654972353173349342e-01
7.550477737339065243e-01
7.447951206094282073e-01
7.357311380548400281e-01
7.284720623438579734e-01
7.230263543785165892e-01
7.187946996891695361e-01
7.148021579689454175e-01
7.100737889109737244e-01
7.040102780456077847e-01
6.966200862748818112e-01
6.885194498725123458e-01
6.807002309494391001e-01
6.741542916166023414e-01
6.694978681477180560e-01
6.667394214448205680e-01
6.652796370382638713e-01
6.641435746211761249e-01
6.623562938866872640e-01
6.593184803651500614e-01
6.550385949585996181e-01
6.501328739407515878e-01
6.455931794225462372e-01
6.424113735149235005e-01
6.412036924915990310e-01
6.419785972546080410e-01
6.441367733343041913e-01
6.467032804238156407e-01
6.487031782162719917e-01
6.495521628576615969e-01
6.492383489545439090e-01
6.483249374139700150e-01
6.477507549802153930e-01
6.484546283975550773e-01
6.509997585730401548e-01
6.553415710420402718e-01
6.608277159682438562e-01
6.664302176781151665e-01
6.711211004981183503e-01
6.742480145919418355e-01
6.757663854949553794e-01
6.762394141142098469e-01
6.766059271939806052e-01
6.778047514785429106e-01
6.803990878749477389e-01
6.843443619185647364e-01
6.889882237730824421e-01
6.933026977649647815e-01
6.962598082206764571e-01
6.972072053039054529e-01
6.962854503112413385e-01
6.942732056939950880e-01
6.921547868710015150e-01
6.909145092610958772e-01
6.911610624458890406e-01
6.928953606353103201e-01
6.955105426676081448e-01
6.980241215438067748e-01
6.994536102649294707e-01
6.991921476692252169e-01
6.972406479666236612e-01
6.942078007387350036e-01
6.910779214043950569e-01
6.888353253824381905e-01
6.880887022544758258e-01
6.888389662304369443e-01
6.904792561485703084e-01
6.920270850098997339e-01
6.924999658154493698e-01
6.912910374034672012e-01
6.884012139838829869e-01
6.844391851383075931e-01
6.803892662855761664e-01
6.772357728445235203e-01
6.755873943967606321e-01
6.754450451522171495e-01
6.762018639491411687e-01
6.768753637885571717e-01
6.764830576714883081e-01
6.744180844361834515e-01
6.706813582925723605e-01
6.658815688222652351e-01
6.610030314440977772e-01
6.570300615769045782e-01
6.545713488022969484e-01
6.536278073302038694e-01
6.535925759988742145e-01
6.534831678093314666e-01
6.523170957625999966e-01
6.494874986969279007e-01
6.449952908222447157e-01
6.394491617201615297e-01
6.338334268095131563e-01
6.291324015091349642e-01
6.259547754006373754e-01
6.243014626939502598e-01
6.235656022273218246e-01
6.227647070017759967e-01
6.209162900183369249e-01
6.174134901152527055e-01
6.122572215024532083e-01
6.060561737615490774e-01
5.997946623113752374e-01
5.944570025707670569e-01
5.906518841213351800e-01
5.883802211730091436e-01
5.870351525640374879e-01
5.856341912954438067e-01
5.831948503682523599e-01
5.791102686207116879e-01
5.733813602627508832e-01
5.666168148759810341e-01
5.598009478792370652e-01
5.539180746913542341e-01
5.495768848939431850e-01
5.467782926969337876e-01
5.449154369385738050e-01
5.430058306198880524e-01
5.400669867418995684e-01
5.354920441428572264e-01
5.292819170326905631e-01
5.220452949930103337e-01
5.147664934426516847e-01
5.084298278004494298e-01
5.036439876480147682e-01
5.004098871952769034e-01
4.981206652804845425e-01
4.957938349046612236e-01
4.924469090688313178e-01
4.874730266112428656e-01
4.808731017418254594e-01
4.732558240421902429e-01
4.656055089311718631e-01
4.589064718276057442e-01
4.537674023131025303e-01
4.501892145975919801e-01
4.475650475193220235e-01
4.449124140793169202e-01
4.412488272786005417e-01
4.359674259554211506e-01
4.290691243197086724e-01
4.211626119530735290e-01
4.132322042743509782e-01
4.062622167023760555e-01
4.008613388187597937e-01
3.970304848334313963e-01
3.941627935846394593e-01
3.912757780734075208e-01
3.873869513007602294e-01
3.818894521049456259e-01
3.747841946958929693e-01
3.666798686552134590e-01
3.585607894017420194e-01
3.514112723543137418e-01
3.458400070945394367e-01
3.418479078323487519e-01
3.388281134059899502e-01
3.357981368164866809e-01
3.317754910648638700e-01
3.261533149893687811e-01
3.189325227999315615e-01
3.107218040781627999e-01
3.025054742428978094e-01
2.952678487129713480e-01
2.896176170699945596e-01
2.855556935238967586e-01
2.824752169129264301e-01
2.793937002381073897e-01
2.753286565004640085e-01
2.696732245382441051e-01
2.624283185613772718e-01
2.542026281514748187e-01
2.459804687273713097e-01
2.387461557079022523e-01
2.331083786746780406e-01
2.290680518376287667e-01
2.260183140350020548e-01
2.229766782678224146e-01
2.189606575371137176e-01
2.133633906811242265e-01
2.061857919097834502e-01
1.980365508047022549e-01
1.898999827847158151e-01
1.827604032686591384e-01
1.772265018381432577e-01
1.732991927030973212e-01
1.703716147017698135e-01
1.674612808351847171e-01
1.635857041043662641e-01
1.581380233475623842e-01
1.511191527747029195e-01
1.431377819673983753e-01
1.351782263444842869e-01
1.282248013247956064e-01
1.228861964899426590e-01
1.191633260498556890e-01
1.164493288427826401e-01
1.137617178697474529e-01
1.101180061317744846e-01
1.049113324671114567e-01
9.814261108568866909e-02
9.042053156911615541e-02
8.272940933622957571e-02
7.605355980586391007e-02
7.100167255962987201e-02
6.757466180745698436e-02
6.516566638759366259e-02
6.279219930106376413e-02
5.947177354889143785e-02
5.459752796932493268e-02
4.817037677229362574e-02
4.079900953940874403e-02
3.346774168950500394e-02
2.716088864141777415e-02
2.248713997675749754e-02
1.944740990545397105e-02
1.743483726575579054e-02
1.546693505868646998e-02
1.256121628527025538e-02
8.110819783755312401e-03
2.116659764071170818e-03
-4.812574192171186101e-03
-1.169256666613659179e-02
-1.753900223899030816e-02
-2.174319132912128430e-02
-2.430421972659978919e-02
-2.582894859317787228e-02
-2.729986492783127716e-02
-2.969945572953621576e-02
-3.363458216004431428e-02
-3.910433000942593190e-02
-4.550000969607023715e-02
-5.183730580114227077e-02
-5.713190290580666408e-02
-6.077511142845330727e-02
-6.276601715915178237e-02
-6.371148125965429843e-02
-6.459399072893666494e-02
-6.639603256597507996e-02
-6.972446793252076724e-02
-7.457838261864462026e-02
-8.034908704273575897e-02
-8.605226578595856490e-02
-9.070360342947926535e-02
-9.369441039168571739e-02
-9.502377246264910593e-02
-9.529855080412044654e-02
-9.550123241507618710e-02
-9.661430429449224810e-02
-9.924462760412108842e-02
-1.033912881340318946e-01
-1.084455963026145775e-01
-1.134232366910333106e-01
-1.173398938804543906e-01
-1.195868782892655913e-01
-1.201632757075377506e-01
-1.196759472970236049e-01
-1.191073800566974233e-01
-1.194400609855364170e-01
-1.212808512452918791e-01
-1.246288366260343283e-01
-1.288753275461534953e-01
-1.330360085868133035e-01
-1.361265643291789118e-01
-1.375383051916399257e-01
-1.372703169642662258e-01
-1.359294608088099932e-01
-1.344982237242468293e-01
-1.339590927095534179e-01
-1.349189289264810521e-01
-1.373768181651000564e-01
-1.407240708437997034e-01
-1.439763715437445690e-01
-1.461494048461000062e-01
-1.466344811692549543e-01
-1.454306863032801544e-01
-1.431448814099275102e-01
-1.407595534881722621e-01
-1.392571895369905666e-01
-1.392446507181346882e-01
-1.407210228216743686e-01
-1.430776162659996020e-01
-1.453301156322744925e-01
-1.464942055016645595e-01
-1.459611962925592421e-01
-1.437301737950274216e-01
-1.396492508516041509e-01
-1.339730019220060908e-01
-1.277301676751493587e-01
-1.215738629427250972e-01
-1.155494271847435084e-01
-1.090944244895334786e-01
-1.012707931081993362e-01
-9.114047129184590923e-02
-7.814102312880194523e-02
-6.231778807907770168e-02
-4.432388097436421731e-02
-2.518804248357762662e-02
-5.939013275633149916e-03
1.277009181777752009e-02
3.089393333664426297e-02
4.899494719263858267e-02
6.801119513465567201e-02
8.888073891159076201e-02
1.121660144351153271e-01
1.378216822452192902e-01
1.651946275102107731e-01
1.932561095611746438e-01
2.209773877291949240e-01
2.477053471825804154e-01
2.733946484613208883e-01
2.986077274770875811e-01
3.242826459787758742e-01
3.513574657152811476e-01
3.803946225982747786e-01
4.113487771677462046e-01
4.435668145920045324e-01
4.760199942021337560e-01
5.076795753292185909e-01
5.378924431415669227e-01
5.666132581791696321e-01
5.944044563536966530e-01
6.222040994140448644e-01
6.509502491091083698e-01
6.812053413505593236e-01
7.129240366783871075e-01
7.454532202609002178e-01
7.777641514291834257e-01
8.088280895143202809e-01
8.379919196846205010e-01
8.652103024800732456e-01
8.910456738123498921e-01
9.164360954303456541e-01
9.423196290829563004e-01
9.692587106818525422e-01
9.972080007670248714e-01
1.025514384506780896e+00
1.053149121232205943e+00
1.079083470274384338e+00
1.102664316801624356e+00
1.123846321353915600e+00
1.143191919842929671e+00
1.161639174017561782e+00
1.180126145626707368e+00
1.199215270582038029e+00
1.218861209423542924e+00
1.238410847319530772e+00
1.256835443601086455e+00
1.273106257599293745e+00
1.286570174482462026e+00
1.297181854790580013e+00
1.305503734435320196e+00
1.312473875165576898e+00
1.319030338730245555e+00
1.325735561040997990e+00
1.332544202637824471e+00
1.338803148689032607e+00
1.343483658525706392e+00
1.345556991478932485e+00
1.345030757829799084e+00
1.342555354304259208e+00
1.338745733423756024e+00
1.334592473546954761e+00
1.331086153032521757e+00
1.328841724401899960e+00
1.327866364804848542e+00
1.327559476019447793e+00
1.326944833986553052e+00
1.325046214647018772e+00
1.321263019778925019e+00
1.315602426532031854e+00
1.308679387427781782e+00
1.301484480824841361e+00
1.295008285081875377e+00
1.289865752720327441e+00
1.286064060889957839e+00
1.283002611368845081e+00
1.279705180097844952e+00
1.275195543017812794e+00
1.268873101906827783e+00
1.260745033914650648e+00
1.251426291562723447e+00
1.241907453209711854e+00
1.233179097214283315e+00
1.225856176097878780e+00
1.219945867010259200e+00
1.214847571729503750e+00
1.209585066196468217e+00
1.203182126352007275e+00
1.195038153974200101e+00
1.185160326212808535e+00
1.174163595589273079e+00
1.163038540462260961e+00
1.152775739190437854e+00
1.143990144295246258e+00
1.136688932926446460e+00
1.130271506862117858e+00
1.123761642043115572e+00
1.116183114410295607e+00
1.106935325741735809e+00
1.096025453187198018e+00
1.084068449268124290e+00
1.072054892343180077e+00
1.060975360771032161e+00
1.051444807073122822e+00
1.043470408399211902e+00
1.036451566527379464e+00
1.029412057398480185e+00
1.021375656953369626e+00
1.011741766970126744e+00
1.000517564598512710e+00
9.883180023599693609e-01
9.761336586131631465e-01
9.649551117167595171e-01
9.553973141922015300e-01
9.474674431892489146e-01
9.405649004859818474e-01
9.337134620232548921e-01
9.259369037419230564e-01
9.166346274200665167e-01
9.058138102074453357e-01
8.940894046255019045e-01
8.824519890329022287e-01
8.718921417883126468e-01
8.630248154131752170e-01
8.558571870572504459e-01
8.497886584986173997e-01
8.438430056781321964e-01
8.370440045366487336e-01
8.287910568522474097e-01
8.190913397746887314e-01
8.085598058254139797e-01
7.981870333630907144e-01
7.889636007463844969e-01
7.815044604967366082e-01
7.758167897639085542e-01
7.712999903259796231e-01
7.669778381238047116e-01
7.618741090982397157e-01
7.553882050273627025e-01
7.475273030609357328e-01
7.389063557203998656e-01
7.305159413644217725e-01
7.233466383516674592e-01
7.180133992035788726e-01
7.145234010699172966e-01
7.122760457287613534e-01
7.102951091209664947e-01
7.076043671873881724e-01
7.036032217061057858e-01
6.982988498268791755e-01
6.923062040711512877e-01
6.866158627975875728e-01
6.822184043648552576e-01
6.797287812943951790e-01
6.791541707359687319e-01
6.798939744676555375e-01
6.809719684303102705e-01
6.814119285647878277e-01
6.806132566491684965e-01
6.785831298332123396e-01
6.758622491315252612e-01
6.733489291288402567e-01
6.720067297831756603e-01
6.724235852153268578e-01
6.745796541744075725e-01
6.778473200378497543e-01
6.812233403458617387e-01
6.837044726386520832e-01
6.846631002936525157e-01
6.840793820599766484e-01
6.825412520584200893e-01
6.810122702470011724e-01
6.804559965837397861e-01
6.814603651894304281e-01
6.840055348131868218e-01
6.874638888324414721e-01
6.908321847874021593e-01
6.931071802182773300e-01
6.936612585024991562e-01
6.924745783891814721e-01
6.901350739991188865e-01
6.876063052903311767e-01
6.858518322208366769e-01
6.855408051677204240e-01
6.867482535921879405e-01
6.888670425553751198e-01
6.909144112811940186e-01
6.919075989935569160e-01
6.912394707535995941e-01
6.889106669941396088e-01
6.855296035196758453e-01
6.820803219719310251e-01
6.795468639926283139e-01
6.785376453862665969e-01
6.790533065856628747e-01
6.804867126519537068e-01
6.818551028090512611e-01
6.821757162808668173e-01
6.808414181285369349e-01
6.778528487848790585e-01
6.738184240543918513e-01
6.697221855787983680e-01
6.665481749998215522e-01
6.649048081219604001e-01
6.647927253780318013e-01
6.656047918291725374e-01
6.663582466992941100e-01
6.660703292123087982e-01
6.641339044293522731e-01
6.605496127832424236e-01
6.559258700784781349e-01
6.512467179567819064e-01
6.474961980598770150e-01
6.452827261922622348e-01
6.446069427867551216e-01
6.448617129044913465e-01
6.450642757693834106e-01
6.442318706053428157e-01
6.417573624735061211e-01
6.376413918066904385e-01
6.324923744093946532e-01
6.272943519233420417e-01
6.230313659902551038e-01
6.203118324146330576e-01
6.191363916292930147e-01
6.188979086953712017e-01
6.186136228367795642e-01
6.173007732774300482e-01
6.143522250784589911e-01
6.097686186726835045e-01
6.041583698646026956e-01
5.985055202959389531e-01
5.937941116084163307e-01
5.906325596065328254e-01
5.890215047231061041e-01
5.883538120192720600e-01
5.876467207189430830e-01
5.859174700460304530e-01
5.825589250616710624e-01
5.775717261986818007e-01
5.715642892615617754e-01
5.655206558920340409e-01
5.604248677318212080e-01
5.568853405854223837e-01
5.549027148856550129e-01
5.538698556936550998e-01
5.528040022333342574e-01
5.507223937286050974e-01
5.470178952406031803e-01
5.416911472021461726e-01
5.353505654177330708e-01
5.289801915290867074e-01
5.235640671779301369e-01
5.197106081687620227e-01
5.174204549344001425e-01
5.160864725359798344e-01
5.147259001974139325e-01
5.123559771426136056e-01
5.083695684327154130e-01
5.027673145005371325e-01
4.961576311505772607e-01
4.895245600245582973e-01
4.838521427642038519e-01
4.797487951740124212e-01
4.772151576868015610e-01
4.756440953637075530e-01
4.740528474286418992e-01
4.714586531055169893e-01
4.672543774554689389e-01
4.614406609113149149e-01
4.546259192775537472e-01
4.477941941959087124e-01
4.419295273081023656e-01
4.376403344186338140e-01
4.349272559603205024e-01
4.331831569942983240e-01
4.314252767444795578e-01
4.286708544347758165e-01
4.243127551263235486e-01
4.183516192519400323e-01
4.113958626161240417e-01
4.044295268605984650e-01
3.984366536270865233e-01
3.940256587200868799e-01
3.911971825724169793e-01
3.893440902452130481e-01
3.874836209623868100e-01
3.846330139478504329e-01
3.801851342627398656e-01
3.741406223398729414e-01
3.671078939837479349e-01
3.600709908360884004e-01
3.540139545386165598e-01
3.495452008958319090e-01
3.466653703405516151e-01
3.447673279339116825e-01
3.428683128998241680e-01
3.399855644622012951e-01
3.355119476821788460e-01
3.294481029925743210e-01
3.224024461978866052e-01
3.153590189398385313e-01
3.093018628601533759e-01
3.048393937633297468e-01
3.019722520821849221e-01
3.000933028778551281e-01
2.982197853742525329e-01
2.953689387952887491e-01
2.909336282021003361e-01
2.849144940275044613e-01
2.779199520759998432e-01
2.709340439893097585e-01
2.649408114091569288e-01
2.605486701400402394e-01
2.577582606147771904e-01
2.559624478945036752e-01
2.541784712031318061e-01
2.514235697645737511e-01
2.470906086399653201e-01
2.411802282621239302e-01
2.343008444355487996e-01
2.274364988019624001e-01
2.215712330030881472e-01
2.173134628434245097e-01
2.146638287557890712e-01
2.130151958013177804e-01
2.113848032039229996e-01
2.087898901875161473e-01
2.046233218132338105e-01
1.988857385138932676e-01
1.921855560939932650e-01
1.855068161952570238e-01
1.798335604594071546e-01
1.757742046909426814e-01
1.733293893226808546e-01
1.718919794157581227e-01
1.704792141940860706e-01
1.681083328815770050e-01
1.641722005393667361e-01
1.586714576002728472e-01
1.522145198687943346e-01
1.457854289866538089e-01
1.403682265955746578e-01
1.365713285000554333e-01
1.343953751329134694e-01
1.332332315552849922e-01
1.321021369910819476e-01
1.300193306642163649e-01
1.263776776358241649e-01
1.211778183387232227e-01
1.150281685774119655e-01
1.089127699936137672e-01
1.038156642290510162e-01
1.003452670882229447e-01
9.850221900394683094e-02
9.767938503735891509e-02
9.689400441237092099e-02
9.516331635289512758e-02
9.188018592006710894e-02
8.704525354670483717e-02
8.126693503730728074e-02
7.552927203359685593e-02
7.081630617729688104e-02
6.773645327290613027e-02
6.629035375324211776e-02
6.587087267944025104e-02
6.549524927541350294e-02
6.418072276507309770e-02
6.132015820955562940e-02
5.691419604167837626e-02
5.157125206593989736e-02
4.627536792406395511e-02
4.201058525777266739e-02
3.938531987156516923e-02
3.840021219825910659e-02
3.844812729898990089e-02
3.854630439767008088e-02
3.771198271821137038e-02
3.533802732175028022e-02
3.142507864110390819e-02
2.658155248077130259e-02
2.179149048247537926e-02
1.803893428793876957e-02
1.593229970166076120e-02
1.547222715645843460e-02
1.605158171346779405e-02
1.668760259660106299e-02
1.639752902977058627e-02
1.457422607411181827e-02
1.121833416244262180e-02
6.938269099261132680e-03
2.718072526291540059e-03
-4.582139147441708846e-04
-1.982174419347291008e-03
-1.853168554699385906e-03
-6.783312596652417903e-04
5.595766896671389330e-04
8.777945172103573251e-04
-3.308127158999996445e-04
-3.065604576846302481e-03
-6.718165261129512879e-03
-1.030445312702702246e-02
-1.284042653281579349e-02
-1.371766967399729031e-02
-1.293554211775382878e-02
-1.110117880294884778e-02
-9.197340505671020711e-03
-8.206788002007924659e-03
-8.736656230823848512e-03
-1.078630475930094854e-02
-1.302830732714113648e-02
-1.378568183714994413e-02
-1.211349164809659776e-02
-7.442425955973660384e-03
1.890506715440348588e-04
1.013469829510069663e-02
2.137265113811653502e-02
3.288104342401181046e-02
4.401363521343010232e-02
5.473196193869738629e-02
6.560533440382049220e-02
7.757868925002990579e-02
9.159696311855762552e-02
1.082294668134098914e-01
1.274377357669123356e-01
1.485755300397097189e-01
1.706209838552210922e-01
1.925522314368669774e-01
2.137230328452916495e-01
2.340949235128207684e-01
2.542372142434605742e-01
2.750948416784429473e-01
2.976127424589986026e-01
3.223602273891342240e-01
3.492988319011756659e-01
3.777823160557667315e-01
4.067888140763275540e-01
4.352964601862784888e-01
4.626590144462635057e-01
4.888380122886079593e-01
5.144027645173193664e-01
5.402982077736281363e-01
5.674692786987655113e-01
5.964852880967387305e-01
6.273077713998725935e-01
6.592904886688116806e-01
6.914115741269758475e-01
7.226491619977857273e-01
7.523570123418851230e-01
7.804966605915989453e-01
8.076374175509353215e-01
8.347242198611246611e-01
8.627020041633977065e-01
8.921400812617619192e-01
9.229999865885423205e-01
9.546354802043833798e-01
9.860246963327050640e-01
1.016145769196927562e+00
1.044352458857694899e+00
1.070606300747332762e+00
1.095476605669847947e+00
1.119908310266470641e+00
1.144846351178434141e+00
1.170860039209743242e+00
1.197910909792724299e+00
1.225352722988021004e+00
1.252163613019054544e+00
1.277321714109243667e+00
1.300180786319232729e+00
1.320702365081348084e+00
1.339455761199595862e+00
1.357385911315207583e+00
1.375437752069413877e+00
1.394180594266222206e+00
1.413575973337958258e+00
1.432977649345264615e+00
1.451363756511563130e+00
1.467712429060272994e+00
1.481377427052037898e+00
1.492320285919184197e+00
1.501110316465718686e+00
1.508692455332872884e+00
1.516011639161877422e+00
1.523637178756737764e+00
1.531530609549782040e+00
1.539045691601652610e+00
1.545160559135768885e+00
1.548853346375554052e+00
1.549477813381648916e+00
1.547522698151253762e+00
1.544116407823419079e+00
1.540251719694632149e+00
1.536921411061379361e+00
1.534742633382924604e+00
1.533724762746848436e+00
1.533269399869051419e+00
1.532402519628210058e+00
1.530150096902999968e+00
1.525913732409321266e+00
1.519702802234756067e+00
1.512134457838567148e+00
1.504201476517240677e+00
1.496896635567265488e+00
1.490837086447903470e+00
1.486032205246735627e+00
1.481883592679662964e+00
1.477417223625361986e+00
1.471659072962507420e+00
1.464010741407000493e+00
1.454481605046422654e+00
1.443688815340036014e+00
1.432625149584329183e+00
1.422283385075788109e+00
1.413280673273676236e+00
1.405626390265574788e+00
1.398722136767383883e+00
1.391593887657779582e+00
1.383267617815438610e+00
1.373144927956261085e+00
1.361235194167827789e+00
1.348155567909402386e+00
1.334898826477471490e+00
1.322457747168522157e+00
1.311449481441817833e+00
1.301883405384939962e+00
1.293161119713787999e+00
1.284308599307039778e+00
1.274351819043369138e+00
1.262692379638677531e+00
1.249339657180547070e+00
1.234910803128239420e+00
1.220398594778241863e+00
1.206795809427042343e+00
1.194719598533903415e+00
1.184179338186405861e+00
1.174576629100451797e+00
1.164937446154714840e+00
1.154287764227873048e+00
1.142029184035825651e+00
1.128171081666154540e+00
1.113330608578121828e+00
1.098500542068216124e+00
1.084673659432923598e+00
1.072467112131507028e+00
1.061890276251548748e+00
1.052344752508948211e+00
1.042856515782381477e+00
1.032451540950525049e+00
1.020531428729279266e+00
1.007105555206224912e+00
9.927910718406258717e-01
9.785807559289688706e-01
9.654673847677408549e-01
9.540681098162046014e-01
9.443923071619418907e-01
9.358415775208530629e-01
9.274418957716140666e-01
9.182192367929007393e-01
9.075752013006137542e-01
8.955191653823344478e-01
8.826682804973252638e-01
8.700153239420748141e-01
8.585530730130683796e-01
8.488986791695701806e-01
8.410615184991615534e-01
8.344431917177410618e-01
8.280696737039874300e-01
8.209669393365748302e-01
8.125365893314040466e-01
8.027879997760568598e-01
7.923383221297958245e-01
7.821803336891086644e-01
7.733068117504819927e-01
7.663349077731788084e-01
7.612739978447807809e-01
7.575256826811871402e-01
7.541159371610757223e-01
7.500707361631214765e-01
7.447916804032244098e-01
7.382881459689671910e-01
7.311772843196118199e-01
7.244518727516452428e-01
7.191046885615559603e-01
7.157528832086053061e-01
7.144058327803749497e-01
7.144651379927665635e-01
7.149567737244540977e-01
7.149067148541157213e-01
7.137165620976505531e-01
7.113956915426397076e-01
7.085612546483479601e-01
7.061172570229438117e-01
7.049420924946840916e-01
7.056144948529585736e-01
7.081054225154748138e-01
7.117780585282617034e-01
7.156199601001208555e-01
7.186186844398557705e-01
7.201374145934940074e-01
7.201471089787436775e-01
7.192265013849954425e-01
7.183299514388619134e-01
7.184118187669583655e-01
7.200508371586741285e-01
7.232179650317178687e-01
7.272763854321174781e-01
7.312136555686750139e-01
7.340173326501941986e-01
7.350505997227019250e-01
7.342844152039064154e-01
7.322975128831983316e-01
7.300442523871907285e-01
7.284789933424992148e-01
7.283191748349501227e-01
7.296940996994701889e-01
7.319964096632569639e-01
7.342431206162843838e-01
7.354512484485257184e-01
7.350134348871786294e-01
7.329300970311216634e-01
7.298094273509155849e-01
7.266352441543443286e-01
7.243913657491934943e-01
7.236859846060221813e-01
7.245195178237099354e-01
7.262846071294546402e-01
7.279982684132283444e-01
7.286775175650064273e-01
7.277149963119853293e-01
7.251111217530442632e-01
7.214740863587443265e-01
7.177877084368682326e-01
7.150358062952021365e-01
7.138265724043055815e-01
7.141604238630574475e-01
7.154300023986560619e-01
7.166523239010736956e-01
7.168444042602847288e-01
7.153988852034866008e-01
7.123161838295580806e-01
7.082044926090602655e-01
7.040476298497760910e-01
7.008294138594913791e-01
6.991580371087661172e-01
6.990339166964786299e-01
6.998496943498276890e-01
7.006223859587857872e-01
7.003690074133266386e-01
6.984822004406481266e-01
6.949623821396286871e-01
6.904177449808293066e-01
6.858321072720341416e-01
6.821892873210274599e-01
6.800974775983699150e-01
6.795570952029402756e-01
6.799607818619360922e-01
6.803255534653307457e-01
6.796684259030982833e-01
6.773820409024357003e-01
6.734668155622222097e-01
6.685309423530182427e-01
6.635582395826076230e-01
6.595325255587761726e-01
6.570619927520828796e-01
6.561470582614072899e-01
6.561803638139473982e-01
6.561789252996749200e-01
6.551597586085655678e-01
6.525155054678156707e-01
6.482465829763041087e-01
6.429611836045927564e-01
6.376431256604638831e-01
6.332762274517036438e-01
6.304686814488713598e-01
6.292209047508464659e-01
6.289255390848267346e-01
6.285996003407844368e-01
6.272601044086947297e-01
6.242996930157541646e-01
6.197187832608418434e-01
6.141255676145189746e-01
6.085038643845683826e-01
6.038374918787760004e-01
6.007346425677014823e-01
5.991957335502235971e-01
5.986134065535408944e-01
5.980046774676255339e-01
5.963865621824520069e-01
5.931517024252170867e-01
5.883005152948004302e-01
5.824411932617622467e-01
5.765575546338872481e-01
5.716334177189592580e-01
5.682769749875390408e-01
5.664886435385052543e-01
5.656610650990555600e-01
5.648112555591635608e-01
5.629562308088029710e-01
5.594886325751708966e-01
5.544088779571462178e-01
5.483251594252899208e-01
5.422212952873857184e-01
5.370811038512194324e-01
5.335127775873500511e-01
5.315167335946566762e-01
5.304856136003377465e-01
5.294364334943649775e-01
5.273862091667137486e-01
5.237275823445807221e-01
5.184609701268454440e-01
5.121945649840674575e-01
5.059121852240319184e-01
5.005976491545227613e-01
4.968591492461006398e-01
4.946971025976444336e-01
4.935041509363516932e-01
4.922973101521959660e-01
4.900935961351507442e-01
4.862856506124136335e-01
4.808738906828639026e-01
4.744665088170608169e-01
4.680473233227899210e-01
4.626001525078350385e-01
4.587331888427569893e-01
4.564468494264346532e-01
4.551337759860650256e-01
4.538109844116228753e-01
4.514954905930799733e-01
4.475799362576352580e-01
4.420647385041671651e-01
4.355580898032356818e-01
4.290438084626265747e-01
4.235057127901227236e-01
4.195519952562853927e-01
4.171830729599931287e-01
4.157915876284435375e-01
4.143945551516108883e-01
4.120089914194675074e-01
4.080275381592117223e-01
4.024506124697222464e-01
3.958864068215591225e-01
3.893187395225078951e-01
3.837314288803515550e-01
3.797326673656514218e-01
3.773228720772864309e-01
3.758946847424531890e-01
3.744651212511266314e-01
3.720511974932791954e-01
3.680455551961087646e-01
3.624486114584949403e-01
3.558685587509965442e-01
3.492892153813994538e-01
3.436943996574877147e-01
3.396923040498213697e-01
3.372833456572799649e-01
3.358601662070602734e-01
3.344397815891361203e-01
3.320392076934812753e-01
3.280510862472931222e-01
3.224758343494510404e-01
3.159216444705143512e-01
3.093723349182682103e-01
3.038117240004971631e-01
2.998480041877613633e-01
2.974815925789400239e-01
2.961051309012300292e-01
2.947356350446059259e-01
2.923901208990396516e-01
2.884612301917303112e-01
2.829493800215564514e-01
2.764627628590776154e-01
2.699851970120800138e-01
2.645005007883461934e-01
2.606168666584375293e-01
2.583347117212326793e-01
2.570466777039291939e-01
2.557697804965011756e-01
2.535210359889206178e-01
2.496930859083868470e-01
2.442863473537779107e-01
2.379090127956538514e-01
2.315449005418006301e-01
2.261778289000006825e-01
2.224159903408157168e-01
2.202598019631245019e-01
2.191019054941236166e-01
2.179593168237883016e-01
2.158490518420903836e-01
2.121637522762281902e-01
2.069038352250811008e-01
2.006774931592084088e-01
1.944685443863957419e-01
1.892608072144268405e-01
1.856624741138620249e-01
1.836739621835807856e-01
1.826879131507799237e-01
1.817213429054334584e-01
1.797912673375145765e-01
1.762903281742209394e-01
1.712189425144321486e-01
1.651853028287073588e-01
1.591732274248323364e-01
1.541665346105904888e-01
1.507734168565427191e-01
1.489942912615678239e-01
1.482217995508494091e-01
1.474729573686560380e-01
1.457647798859715849e-01
1.424899080566279508e-01
1.376487582061378112e-01
1.318495220316951433e-01
1.260760170677175662e-01
1.213120608486231988e-01
1.181658450716066011e-01
1.166377860621793522e-01
1.161205247741734364e-01
1.156310763241962247e-01
1.141864558288533532e-01
1.111793042419776112e-01
1.066100378890810219e-01
1.010868484673570628e-01
9.559355351122530986e-02
9.111397055510223053e-02
8.825629129618274560e-02
8.702093205997897540e-02
8.680053380032159982e-02
8.661211163381897504e-02
8.547268067707715355e-02
8.277488188392781443e-02
7.851913157988402170e-02
7.331362146213853126e-02
6.814216906511073868e-02
6.398859192321801337e-02
6.146108173365459615e-02
6.056005482193303757e-02
6.067815214188325423e-02
6.083238881011440724e-02
6.003977994323271561e-02
5.769296649506910901e-02
5.379236479113676944e-02
4.894616652862914669e-02
4.413818924196427629e-02
4.035225046556085993e-02
3.819654189661218779e-02
3.767147986063113657e-02
3.816970531144922574e-02
3.870823336567244533e-02
3.830407913990968582e-02
3.634988358799088465e-02
3.284606303542854377e-02
2.840080917941785466e-02
2.399793955437499321e-02
2.062127169471991706e-02
1.887899729764546536e-02
1.877153268866413663e-02
1.969151882160812689e-02
2.065597081308367597e-02
2.068190377969827964e-02
1.916195867528280167e-02
1.609655182535011525e-02
1.209387492709487581e-02
8.137745514933347746e-03
5.211981123285166009e-03
3.924773449344007639e-03
4.276538818621635624e-03
5.659918184950784616e-03
7.091926664936524377e-03
7.589579375188016883e-03
6.545517269535221228e-03
3.960156673491019297e-03
4.416892842495055986e-04
-3.026067363771944331e-03
-5.459295736153262774e-03
-6.249804135702426156e-03
-5.397176236906605501e-03
-3.508771085934353755e-03
-1.567573566178179483e-03
-5.565685610312729945e-04
-1.083115116662486041e-03
-3.146796907559402511e-03
-6.139422236527280682e-03
-9.077173569149041277e-03
-1.097623337100615479e-02
-1.122840994490397620e-02
-9.833286965331412138e-03
-7.398223478455703654e-03
-4.906204367671373329e-03
-3.340214516369653837e-03
-3.307612970720427356e-03
-4.206975238678786755e-03
-4.850768281058717192e-03
-4.287674800255679430e-03
-1.566377498662127957e-03
3.888815084103426807e-03
1.204581903674179291e-02
2.226477507627289132e-02
3.353019808249101119e-02
4.482660293519184075e-02
5.551413035139496355e-02
6.556069641980075136e-02
7.554199260079229317e-02
8.640933619197421756e-02
9.911404449095409519e-02
1.142318089581135510e-01
1.317305456821528664e-01
1.509703953800925202e-01
1.709358729317266012e-01
1.906114932168510856e-01
2.093573969524850087e-01
2.271415002273290684e-01
2.445394945017659583e-01
2.625026970734014031e-01
2.819824252398417941e-01
3.035543704614690474e-01
3.271864488269839999e-01
3.522388010534059921e-01
3.776959420205303619e-01
4.025423866081525581e-01
4.261382755332915329e-01
4.484515248846481228e-01
4.700578261226047716e-01
4.919084965447672597e-01
5.149548534487425888e-01
5.397725882949119258e-01
5.663296171719764960e-01
5.939860807969559175e-01
6.217264940496440850e-01
6.485353718098381126e-01
6.737728547945562863e-01
6.974068590924993316e-01
7.200130761640504140e-01
7.425428233068144257e-01
7.659474178183984794e-01
7.908025511591842971e-01
8.170761394178722714e-01
8.441283233114830198e-01
8.709436177198098816e-01
8.965065375226499711e-01
9.201772234370214631e-01
9.419235915516251945e-01
9.623213333268446634e-01
9.823217660602842072e-01
1.002876207049551160e+00
1.024560347755027578e+00
1.047342104265413854e+00
1.070581617297729604e+00
1.093263401731769724e+00
1.114371972447329329e+00
1.133267470161428481e+00
1.149917810962767684e+00
1.164898686311729215e+00
1.179161413505918743e+00
1.193657309842943048e+00
1.208962066783184186e+00
1.225043600415342215e+00
1.241262051456437421e+00
1.256601934786264474e+00
1.270047765284618935e+00
1.280959683668519755e+00
1.289305606026667883e+00
1.295661223819445818e+00
1.300977854344459228e+00
1.306206814899315116e+00
1.311923796944394649e+00
1.318096716568399884e+00
1.324085714488347776e+00
1.328875305584036548e+00
1.331450004735259540e+00
1.331606862422157089e+00
1.329777160092828314e+00
1.326576272602070672e+00
1.322995200641905678e+00
1.320024944904355957e+00
1.318280880244218745e+00
1.317770606144610834e+00
1.317893946716967246e+00
1.317675100235498720e+00
1.316138264974415772e+00
1.312683265045154535e+00
1.307317699930831134e+00
1.300656944486242139e+00
1.293691999403410620e+00
1.287413865374358313e+00
1.282437917253882675e+00
1.278771754525100501e+00
1.275815201299446811e+00
1.272592455851132565e+00
1.268127716454367837e+00
1.261820807220588980e+00
1.253679327632911678e+00
1.244318652546132942e+00
1.234729782652277619e+00
1.225903718643363671e+00
1.218455835374191443e+00
1.212393732327876616e+00
1.207117233615854213e+00
1.201650537512335415e+00
1.195017842291530963e+00
1.186618972064876099e+00
1.176461526315486505e+00
1.165160879898160973e+00
1.153708033504920794e+00
1.143093987827787705e+00
1.133934117721560497e+00
1.126236022669354853e+00
1.119399526782605125e+00
1.112448828335523832e+00
1.104408125602320379e+00
1.094677242694430452e+00
1.083263779094971513e+00
1.070783109658738796e+00
1.058226235077756927e+00
1.046584156044046532e+00
1.036472247412404846e+00
1.027898108665949772e+00
1.020261563916115000e+00
1.012586811437111933e+00
1.003898049503151535e+00
9.935951022256688248e-01
9.816855690877808183e-01
9.687848249442837512e-01
9.558838704872012482e-01
9.439737064085543805e-01
9.336697075631408271e-01
9.249794734340771596e-01
9.173028281327989530e-01
9.096639699335163920e-01
9.010870971104399940e-01
8.909720337750062225e-01
8.793263794103304276e-01
8.667655088712102884e-01
8.542804228496693186e-01
8.428621220377273682e-01
8.331259812901833373e-01
8.250796000901533533e-01
8.181228025490724365e-01
8.112797869411516594e-01
8.035747515406017616e-01
7.944075204588577632e-01
7.837856931790363468e-01
7.723246445559349693e-01
7.610153752815762562e-01
7.508488860479811677e-01
7.424405517099482710e-01
7.357979717505933603e-01
7.303209702813512338e-01
7.250337455764340744e-01
7.189604959100516224e-01
7.115010453936392310e-01
7.026629935103140268e-01
6.930617151148722455e-01
6.836882108993376228e-01
6.755334815557310080e-01
6.692129019388504130e-01
6.647340715318124094e-01
6.614968144460509070e-01
6.585253289557786438e-01
6.548438133352051382e-01
6.498520916957661875e-01
6.435577635205783631e-01
6.365762036644384558e-01
6.298984128193692023e-01
6.245153916773924507e-01
6.210425150933056582e-01
6.194873825502258402e-01
6.192498181595872397e-01
6.193540201956013735e-01
6.188241869324784261e-01
6.170601424816539726e-01
6.140694863262448067e-01
6.104675933210480521e-01
6.072454641580864454e-01
6.053940995293812799e-01
6.055288742897302345e-01
6.076276596149104980e-01
6.110341382711583780e-01
6.147328889758956194e-01
6.177084904465431903e-01
6.193211472377481153e-01
6.195388392758365281e-01
6.189373218588171133e-01
6.184679761219236127e-01
6.190821832003869929e-01
6.213556983922168264e-01
6.252565016237401352e-01
6.301447974496017235e-01
6.350051645872248907e-01
6.388221817540298275e-01
6.409560535046626706e-01
6.413747597654514410e-01
6.406540558344033798e-01
6.397453228467523401e-01
6.395999419377305095e-01
6.407936684053459064e-01
6.432944821759261078e-01
6.464625878041166951e-01
6.494236123611434319e-01
6.513249405066928732e-01
6.515594131781023979e-01
6.501276466843913804e-01
6.476380327062603026e-01
6.450745887616333718e-01
6.434213323684359054e-01
6.432866552073671640e-01
6.446711735874467442e-01
6.469677284460132460e-01
6.491935348831781027e-01
6.503658079990569663e-01
6.498773887309866604e-01
6.477288933879858934e-01
6.445287136507563686e-01
6.412608670372207387e-01
6.389093710653053204e-01
6.380826174157093744e-01
6.387812223974521642e-01
6.403980269478721787e-01
6.419502461670818505e-01
6.424550951551952771e-01
6.413054148495505036e-01
6.385018215591655721e-01
6.346527069647426300e-01
6.307420885842038860e-01
6.277539839354758788e-01
6.262967846992582022e-01
6.263711071845695644e-01
6.273697923287486766e-01
6.283100552319080823e-01
6.282091109941621010e-01
6.264598005528477787e-01
6.230627402169843787e-01
6.186263216672726051e-01
6.141345624216366650e-01
6.105714799980018759e-01
6.085454660770676094e-01
6.080571369678534621e-01
6.084993336076967019e-01
6.088892710967112043e-01
6.082441645350108450e-01
6.059568548599328919e-01
6.020279583804964973e-01
5.970658667774020323e-01
5.920545975685737039e-01
5.879781682719373848e-01
5.854449705681918914e-01
5.844556207663570424e-01
5.844029598037708828e-01
5.843042027805456229e-01
5.831765647967963595e-01
5.804128867898600275e-01
5.760137850687554462e-01
5.705876513141840967e-01
5.651185030440690760e-01
5.605903577763361456e-01
5.576116071916853434e-01
5.561828675991352666e-01
5.556969799360245155e-01
5.551711593024656333e-01
5.536226207985724956e-01
5.504442053616830366e-01
5.456365293008161865e-01
5.398079842966729824e-01
5.339425878671767434e-01
5.290243575302530088e-01
5.256616849666019275e-01
5.238551864852418749e-01
5.229977030235118951e-01
5.221064496815243094e-01
5.201986415593934376e-01
5.166671195944564365e-01
5.115125000957326806e-01
5.053431747439225408e-01
4.991431610569507238e-01
4.938964765527416034e-01
4.902115129119956061e-01
4.880888864437316621e-01
4.869214380852874835e-01
4.857263829367768904e-01
4.835209360983132032e-01
4.796979385072340785e-01
4.742580064725586131e-01
4.678095316749876220e-01
4.613365316324449794e-01
4.558230238628562248e-01
4.518774000469207852e-01
4.495002764936579798e-01
4.480844941404059645e-01
4.466472680872772272e-01
4.442058134343860876e-01
4.401529711190702576e-01
4.344893574503487788e-01
4.278233641089221329e-01
4.211390086127146937e-01
4.154203084796509460e-01
4.112756553904314827e-01
4.087056656540754562e-01
4.071031802079201345e-01
4.054854141520791710e-01
4.028695825866661639e-01
3.986485264490191027e-01
3.928228620481569733e-01
3.860009810647800910e-01
3.791669010168120524e-01
3.733046394221800068e-01
3.690225879615819937e-01
3.663213629440377761e-01
3.645938053068848994e-01
3.628571301502369617e-01
3.601285525742076166e-01
3.558009135161345204e-01
3.498748292850371588e-01
3.429586915616154585e-01
3.360365178637933492e-01
3.300923257094972030e-01
3.257345067794262805e-01
3.229636773825994012e-01
3.211726784563542769e-01
3.193787251008047834e-01
3.165990324160645186e-01
3.122264413394710836e-01
3.062615681800430756e-01
2.993128046184827529e-01
2.923641681727126018e-01
2.863996763606571627e-01
2.820277208630180277e-01
2.792489179888142936e-01
2.774561086753826733e-01
2.756665080228369313e-01
2.728973311312910544e-01
2.685414189380827543e-01
2.625993877522307951e-01
2.556796292544348259e-01
2.487661609626222736e-01
2.428430003947138482e-01
2.385185392314126129e-01
2.357933937817368319e-01
2.340604049830237454e-01
2.323367879353873400e-01
2.296397577389413525e-01
2.253621553310234116e-01
2.195045970206526420e-01
2.126754744885280823e-01
2.058588052525773260e-01
2.000386068307216103e-01
1.958232709036633878e-01
1.932134137804208396e-01
1.916018763983320106e-01
1.900058738575104156e-01
1.874426212580695972e-01
1.833049595373472673e-01
1.775935050043630781e-01
1.709166493398154019e-01
1.642584100616312770e-01
1.586028046877341058e-01
1.545582248988242868e-01
1.521252870039208893e-01
1.506968319403615419e-01
1.492900748082601203e-01
1.469222307077300560e-01
1.429861405761089499e-01
1.374824207224163986e-01
1.310194628273511075e-01
1.245812844088395599e-01
1.191519029848056993e-01
1.153397102359498133e-01
1.131453224712909711e-01
1.119615806281666348e-01
1.108056998066911381e-01
1.086948951069763442e-01
1.050220074663619912e-01
9.978765319386603827e-02
9.360022397018916140e-02
8.744373731325602583e-02
8.230221074099081102e-02
7.878403593409405437e-02
7.688982920158482504e-02
7.601243148080084888e-02
7.516905787185666765e-02
7.337692347486338140e-02
7.002886922716088092e-02
6.512551143776759699e-02
5.927524178738388660e-02
5.346207779393429005e-02
4.867003697534312556e-02
4.550751101231109708e-02
4.397511621385782887e-02
4.346569351731900677e-02
4.299645802281117785e-02
4.158462483044510216e-02
3.862303487755974762e-02
3.411230447317434300e-02
2.866082529798918282e-02
2.325261486992858534e-02
1.887169070691724349e-02
1.612644448965517771e-02
1.501749252716264374e-02
1.493767575677577668e-02
1.490420927860873143e-02
1.393430819277516677e-02
1.142081343661259692e-02
7.364341319140869924e-03
2.373283521059621568e-03
-2.568342439706647329e-03
-6.476519045233500999e-03
-8.742854614819568077e-03
-9.366732839446199194e-03
-8.955312781776468209e-03
-8.491379341696258382e-03
-8.957717419092195432e-03
-1.096148607662622218e-02
-1.450206900527928333e-02
-1.897107452435123007e-02
-2.338448511591734863e-02
-2.675828326205394181e-02
-2.848407728205900116e-02
-2.856125086691415835e-02
-2.759696307928223222e-02
-2.657399881904968023e-02
-2.647514298610247063e-02
-2.790755464310305106e-02
-3.087061748103161335e-02
-3.475593981918981279e-02
-3.857950413964958414e-02
-4.135729292449037697e-02
-4.248091449300912120e-02
-4.194975253618739297e-02
-4.037096611668843787e-02
-3.872734013439733253e-02
-3.800165948920186665e-02
-3.880108324376305151e-02
-4.112499508906185264e-02
-4.436500334440006410e-02
-4.753709049184997454e-02
-4.965723901348846614e-02
-5.011705722861559825e-02
-4.891592882821209354e-02
-4.666101287493990696e-02
-4.433509426868563474e-02
-4.292095790933563026e-02
-4.302576285955262564e-02
-4.464889281031631657e-02
-4.718195608092899673e-02
-4.964093515346310048e-02
-5.104181250999496877e-02
-5.077619646982427931e-02
-4.884347072393328132e-02
-4.585079433498295831e-02
-4.278095220285880323e-02
-3.989460704698805787e-02
-3.710550807805661905e-02
-3.445610747978012506e-02
-3.138108206418897816e-02
-2.693948280609492762e-02
-2.019036068030359912e-02
-1.056839249884880018e-02
1.883969554555570396e-03
1.651649792451415077e-02
3.230333921840762568e-02
4.821864004361666595e-02
6.361217284474601774e-02
7.844148543808071583e-02
9.327190101159055224e-02
1.090443685904635279e-01
1.266998371998942219e-01
1.468036300278487416e-01
1.693132948906131974e-01
1.935786042327923284e-01
2.185737046617667600e-01
2.432727427849174506e-01
2.670254910468481957e-01
2.897894972638450639e-01
3.121300846238764803e-01
3.349882021521332631e-01
3.593047988738072296e-01
3.856451979768653615e-01
4.139669472775938663e-01
4.436198192205971780e-01
4.735779604132565601e-01
5.028155174629524993e-01
5.306822628142888743e-01
5.571357442835518370e-01
5.827412850587092574e-01
6.084398341649529529e-01
6.351723406274741857e-01
6.635041276342393823e-01
6.933927430015358606e-01
7.241879591739686095e-01
7.548639227589154510e-01
7.843947803637605354e-01
8.121303044331062981e-01
8.380280427832395018e-01
8.626533186021273503e-01
8.869470809149615498e-01
9.118502787469335846e-01
9.379282352860102145e-01
9.651384983484784241e-01
9.928308403789433134e-01
1.019979407984783926e+00
1.045558347773380969e+00
1.068917432189340211e+00
1.090014209048947080e+00
1.109414001540169004e+00
1.128057758688197465e+00
1.146886429518224837e+00
1.166465337218216991e+00
1.186752029604460024e+00
1.207096279121560922e+00
1.226472232376898175e+00
1.243854035977851824e+00
1.258591462369028191e+00
1.270642059366712928e+00
1.280571150158873017e+00
1.289319683770699720e+00
1.297828609227385854e+00
1.306663249716896624e+00
1.315781153055520347e+00
1.324532091687860680e+00
1.331890212221297665e+00
1.336829661263213120e+00
1.338700211258210704e+00
1.337459410022575845e+00
1.334308374947847042e+00
1.330855813476388150e+00
1.328090620953802814e+00
1.326626066888464184e+00
1.326467645417068741e+00
1.327013075304628975e+00
1.327284449478934425e+00
1.326303860867775075e+00
1.323469028236163636e+00
1.318785445720794591e+00
1.312866382830046863e+00
1.306700734909516992e+00
1.301277397304807515e+00
1.297209639524294467e+00
1.294502955704672331e+00
1.292555064610954041e+00
1.290388059170929358e+00
1.287024032312388266e+00
1.281860702800343477e+00
1.274903564771489251e+00
1.266765887734204510e+00
1.258436567034085574e+00
1.250904498016736088e+00
1.244782950190530535e+00
1.240077417692164730e+00
1.236185619286650494e+00
1.232129647901779368e+00
1.226931596465339114e+00
1.219989183742343108e+00
1.211307903869486724e+00
1.201501026355146884e+00
1.191557446544922794e+00
1.182466059784416101e+00
1.174840135582001066e+00
1.168685168074373726e+00
1.163398876026547235e+00
1.158003352366311134e+00
1.151520690021454962e+00
1.143348607756991209e+00
1.133492599709615245e+00
1.122565935387703995e+00
1.111557510136856886e+00
1.101456219302675343e+00
1.092875332393533627e+00
1.085820343546128441e+00
1.079688971525472718e+00
1.073503309259353777e+00
1.066285449675564490e+00
1.057433111539115345e+00
1.046951788986702825e+00
1.035454751526702966e+00
1.023930894504715861e+00
1.013369113266341826e+00
1.004382677319956674e+00
9.969770808022557773e-01
9.905500424782519575e-01
9.841236552757354206e-01
9.767200121224949294e-01
9.677368317835443046e-01
9.571796083955784740e-01
9.456616114669722517e-01
9.341717363433273968e-01
9.236988783702442252e-01
9.148563070560983279e-01
9.076495165375844110e-01
9.014762255797164059e-01
8.953585271102846299e-01
8.883185140570756255e-01
8.797539051851054337e-01
8.696701946310676501e-01
8.586806519033393092e-01
8.477741723475198388e-01
8.379396513092102206e-01
8.297903582967860459e-01
8.233317874469426867e-01
8.179616575246928534e-01
8.127020614578279734e-01
8.065750921741342561e-01
7.989784684386271874e-01
7.899176843880010290e-01
7.800060095306322605e-01
7.702323392121211976e-01
7.615855687780680450e-01
7.546789677368487270e-01
7.495180302251587268e-01
7.455004750080098663e-01
7.416483950131942393e-01
7.369838831684984992e-01
7.309046582389374658e-01
7.234162143612061779e-01
7.151318210436798939e-01
7.070403736319599286e-01
7.001307674716457097e-01
6.950162720711138276e-01
6.917023815670596543e-01
6.895868147244959001e-01
6.876916644712114390e-01
6.850390237349964773e-01
6.810266112808645023e-01
6.756599212455101089e-01
6.695522231373097766e-01
6.636924123018632660e-01
6.590693840847707818e-01
6.562964079944094697e-01
6.553789781674739245e-01
6.557148133689767455e-01
6.563260065267078058e-01
6.562346505684564235e-01
6.548384642592361971e-01
6.521429417357419434e-01
6.487613525063488096e-01
6.456825919166599981e-01
6.438157295063868801e-01
6.436819733038485758e-01
6.452684639344778983e-01
6.479545666520269975e-01
6.507440208730247422e-01
6.526405660139991127e-01
6.530235673287029252e-01
6.518801654425695480e-01
6.498052763527133457e-01
6.477694418934762943e-01
6.467432038991942633e-01
6.473214783669846151e-01
6.494914059222804958e-01
6.526323518188339445e-01
6.557480554731736078e-01
6.578422563018277991e-01
6.582943195585485574e-01
6.570913858687708053e-01
6.548283712296074643e-01
6.524758174753999551e-01
6.510042664404872559e-01
6.510086341219833983e-01
6.524760611453230830e-01
6.547859127642579047e-01
6.569994482913609213e-01
6.581867006942740961e-01
6.577401957093543805e-01
6.556602344446419428e-01
6.525548933798559492e-01
6.494078748319395133e-01
6.472028811178394125e-01
6.465479887172745910e-01
6.474434987382836626e-01
6.492819369172251331e-01
6.510802031532305634e-01
6.518551973454332904e-01
6.509994452301929302e-01
6.485132479155459873e-01
6.450046818812144034e-01
6.414574494441417363e-01
6.388552529212723208e-01
6.378061687923262113e-01
6.383104981653417997e-01
6.397607667766768147e-01
6.411738745254649263e-01
6.415667213108395828e-01
6.403318328691572914e-01
6.374695103084575543e-01
6.335878301084614250e-01
6.296704945861095748e-01
6.267012060583514454e-01
6.252880410049037607e-01
6.254313005338061338e-01
6.265235103814168482e-01
6.275815704468673539e-01
6.276223806292920981e-01
6.260384666650485874e-01
6.228301296621753247e-01
6.186054461003928084e-01
6.143481182966453735e-01
6.110418485678770217e-01
6.092947133938082516e-01
6.091070138824775659e-01
6.098712757702412501e-01
6.106043989562346397e-01
6.103232833395907386e-01
6.084204546566657212e-01
6.048962140154993117e-01
6.003586378958116754e-01
5.957914286145460370e-01
5.921782884886487297e-01
5.901272939978384757e-01
5.896387462501538890e-01
5.901051709819529201e-01
5.905434680923699053e-01
5.899705374805358504e-01
5.877789048828095941e-01
5.839688714072305276e-01
5.791485135335168177e-01
5.743015335786144648e-01
5.704116338594674707e-01
5.680868908557953345e-01
5.673276056756383356e-01
5.675263040553519822e-01
5.676998858940707215e-01
5.668652510909270026e-01
5.644149253822796641e-01
5.603492098761666540e-01
5.552761810523082486e-01
5.501795412276485608e-01
5.460429927191318145e-01
5.434746120064789521e-01
5.424747001977273664e-01
5.424357830292355631e-01
5.423747604001377676e-01
5.413085322095653185e-01
5.386296241938761664e-01
5.343383374611100356e-01
5.290427484909852041e-01
5.237265596004484491e-01
5.193734731064432175e-01
5.165915654886883424e-01
5.153811378552244360e-01
5.151347159424073396e-01
5.148691996493711676e-01
5.136014888752492569e-01
5.107241093563987810e-01
5.062373622008593532e-01
5.007493238883502507e-01
4.952436967358159747e-01
4.907041830602002497e-01
4.877388593412246842e-01
4.863480266869269486e-01
4.859242108336637167e-01
4.854843116805711012e-01
4.840452291267798302e-01
4.809994889086484093e-01
4.763473921342152306e-01
4.706970152831999599e-01
4.650320606725483197e-01
4.603362306192040898e-01
4.572176016028867696e-01
4.556764747316360276e-01
4.551053757418082046e-01
4.545212045325374151e-01
4.529408610029567739e-01
4.497568708894237322e-01
4.449695352999767928e-01
4.391869307143378420e-01
4.333927594494486613e-01
4.285707238222541959e-01
4.253289003124757217e-01
4.236675900281512419e-01
4.229793187056380965e-01
4.222809862440707884e-01
4.205894925425803232e-01
4.172973633375259284e-01
4.124048997369462177e-01
4.065201782205601355e-01
4.006269011053138485e-01
3.957087707081507477e-01
3.923738635087908877e-01
3.906224806152736595e-01
3.898471477639544602e-01
3.890647648539689030e-01
3.872922317844497142e-01
3.839220742917538454e-01
3.789545934839204655e-01
3.729978658406697956e-01
3.670355936789469475e-01
3.620514793156932587e-01
3.586535992306322806e-01
3.568422545318008510e-01
3.560099709555570868e-01
3.551736484010349915e-01
3.533501867673660146e-01
3.499321117909084955e-01
3.449197245797026579e-01
3.389211016134656695e-01
3.329199452091448075e-01
3.278999576836827412e-01
3.244692155168000247e-01
3.226280198165362156e-01
3.217688963192471552e-01
3.209087449240659029e-01
3.190644655301279053e-01
3.156285838737896143e-01
3.106014010630894218e-01
3.045909935777481592e-01
2.985810637347096619e-01
2.935553138509180426e-01
2.901218204060944106e-01
2.882808845082760474e-01
2.874250318938214033e-01
2.865711624618646480e-01
2.847361761115368428e-01
2.813125985791969375e-01
2.763007309728834904e-01
2.703086497723158343e-01
2.643200572944408577e-01
2.593186558562002308e-01
2.559125219373146187e-01
2.541019566458238566e-01
2.532794857180840631e-01
2.524620090532289640e-01
2.506664265503919520e-01
2.472852639459303392e-01
2.423188223478839054e-01
2.363751782359718445e-01
2.304380339271386302e-01
2.254910917383281255e-01
2.221424281492617725e-01
2.203923442679772415e-01
2.196333658308311232e-01
2.188823927369596412e-01
2.171563248854932460e-01
2.138476880127906932e-01
2.089567832268906800e-01
2.030916870075121783e-01
1.972361016716018267e-01
1.923737295361027111e-01
1.891126470807346083e-01
1.874531554135361322e-01
1.867877802708665103e-01
1.861334215518566093e-01
1.845069791556409322e-01
1.813009788185770133e-01
1.765157216487029668e-01
1.707592841257410399e-01
1.650153685666328474e-01
1.602676772883239731e-01
1.571242867705343604e-01
1.555854981213030952e-01
1.550438370769871288e-01
1.545162035367192710e-01
1.530194973996349683e-01
1.499462444020898677e-01
1.452967456521230827e-01
1.396790776294550562e-01
1.340769426510288187e-01
1.294740430337909254e-01
1.264784552574601817e-01
1.250904804300747020e-01
1.247026442879941299e-01
1.243318467303496516e-01
1.229949876562752564e-01
1.200845928021288117e-01
1.156009632759480432e-01
1.101521755574544070e-01
1.047219319635925849e-01
1.002939348113047746e-01
9.747626058031239049e-02
9.626921037865415753e-02
9.606530994268756840e-02
9.588145917154559938e-02
9.473455796436239251e-02
9.201713205749396940e-02
8.772948255898097014e-02
8.247968594854199198e-02
7.725144454312105058e-02
7.302846065966431266e-02
7.041881077789083343e-02
6.942279600583933785e-02
6.943294207986813737e-02
6.946614889910802948e-02
6.853931636269511296e-02
6.604497020698595067e-02
6.198341154001852510e-02
5.696271684151406334e-02
5.196658842841673370e-02
4.797872861767098207e-02
4.560721388899599549e-02
4.485234535043065851e-02
4.510664873833320626e-02
4.538702395183663585e-02
4.471037089007458970e-02
4.246921528940359597e-02
3.866385825786321923e-02
3.390237627517434654e-02
2.916847165827878008e-02
2.544584672412333187e-02
2.334257795242676223e-02
2.285896645122841020e-02
2.338753795688641723e-02
2.394519236853242736e-02
2.354882958530010381e-02
2.159097534354836867e-02
1.807193075131420523e-02
1.359977228831913722e-02
9.158202271506935693e-03
5.730923017821968474e-03
3.926011006984512011e-03
3.743767347033296472e-03
4.576717774324187346e-03
5.441762187992839339e-03
5.355800487172349307e-03
3.711358408218720650e-03
5.087370591715730146e-04
-3.643987080248903884e-03
-7.763111693099095968e-03
-1.086493446243269080e-02
-1.234137890853181235e-02
-1.219214392335717101e-02
-1.102470377054988633e-02
-9.822158550978680319e-03
-9.567608365509270435e-03
-1.086852747778436525e-02
-1.372461477976542193e-02
-1.752779379173052474e-02
-2.129436219673746383e-02
-2.404061767784110987e-02
-2.515848375532155068e-02
-2.464765932113975946e-02
-2.311561863893854540e-02
-2.154546180958559140e-02
-2.092028893394469458e-02
-2.184757427566107538e-02
-2.432701672669475290e-02
-2.775053980732600581e-02
-3.113444120061065884e-02
-3.349501858960349243e-02
-3.422419549458507321e-02
-3.332167080751738397e-02
-3.139491879204087121e-02
-2.942703954902435928e-02
-2.840113317933366799e-02
-2.892467394661151284e-02
-3.099736074281913417e-02
-3.401111708823582186e-02
-3.698224066591648818e-02
-3.821052824030801709e-02
-3.639680952517788948e-02
-3.157889408063717374e-02
-2.440236683847869445e-02
-1.588843856771906052e-02
-7.058320037374442822e-03
1.442403820761827514e-03
9.575923446579568538e-03
1.791220465164857986e-02
2.739683908476223118e-02
3.897541839471690972e-02
5.321790839308168652e-02
7.008649951974527115e-02
8.893560684291627882e-02
1.087440195935749782e-01
1.284905270027079383e-01
1.475295441385218176e-01
1.658232614409045902e-01
1.839416447214276829e-01
2.028302856288853595e-01
2.234347758120716898e-01
2.463250810825559356e-01
2.714633918802283885e-01
2.982041232732954850e-01
3.255260644927409630e-01
3.524080047695483664e-01
3.782043591719247977e-01
4.028773181397594660e-01
4.269968474846236872e-01
4.515085388553096157e-01
4.773579839006120151e-01
5.051151484321024787e-01
5.347422228896691054e-01
5.655936223415189978e-01
5.966481360186367544e-01
6.268845531520034209e-01
6.556572888098287644e-01
6.829285334320008838e-01
7.092682528300893186e-01
7.356220386528897759e-01
7.629354825491958536e-01
7.917785503305773132e-01
8.221134324369248070e-01
8.532945439364426621e-01
8.843006740601168092e-01
9.141106120389299594e-01
9.420787729410893263e-01
9.681673472064841190e-01
9.929463006466846542e-01
1.017361224910485751e+00
1.042357711646679563e+00
1.068505726666838518e+00
1.095767460410850269e+00
1.123497327946923141e+00
1.150674118506041177e+00
1.176276621319185089e+00
1.199659251454564757e+00
1.220784199352068500e+00
1.240221430823265747e+00
1.258916537516951095e+00
1.277815111081919808e+00
1.297487117329741979e+00
1.317894746700306152e+00
1.338392414261819097e+00
1.357958909245263746e+00
1.375573020881625697e+00
1.390589164239110387e+00
1.402969529757608136e+00
1.413284083248688816e+00
1.422478416361145914e+00
1.431498120743774694e+00
1.440913162208144582e+00
1.450685731194145456e+00
1.460170242769983640e+00
1.468345486166643621e+00
1.474190250615107667e+00
1.477058951183585211e+00
1.476913778311962577e+00
1.474857103056477436e+00
1.472397044652300035e+00
1.470524378260781528e+00
1.469854253206051675e+00
1.470394043440559795e+00
1.471543347545070990e+00
1.472326138263130080e+00
1.471766388338277887e+00
1.469263696351283066e+00
1.464825436254592939e+00
1.459066757372337042e+00
1.452978434865869195e+00
1.447551243896543216e+00
1.443400333788489087e+00
1.440533078494154573e+00
1.438349076594304998e+00
1.435872300832486959e+00
1.432126723952239500e+00
1.426511944534331278e+00
1.419035336531210278e+00
1.410312049267005152e+00
1.401332857903071050e+00
1.393088537600762233e+00
1.386194237684205799e+00
1.380657332105851953e+00
1.375877419446466465e+00
1.370878472449592600e+00
1.364684463858772956e+00
1.356694992254773968e+00
1.346917431590045178e+00
1.335966931188715678e+00
1.324834266212138401e+00
1.314510211821667385e+00
1.305609917341432835e+00
1.298140756723882072e+00
1.291502328549782863e+00
1.284718605562677807e+00
1.276813560506107725e+00
1.267186791960842385e+00
1.255845673879328661e+00
1.243405355585695427e+00
1.230856612241297832e+00
1.219190219007489695e+00
1.209021325208399222e+00
1.200357304796475733e+00
1.192597756352484994e+00
1.184766652619970495e+00
1.175887966342475499e+00
1.165361296100765331e+00
1.153194015847289311e+00
1.140001274906177420e+00
1.126773848438783698e+00
1.114502511606459745e+00
1.103802413733336651e+00
1.094680928771862627e+00
1.086537655302804106e+00
1.078396566069704576e+00
1.069281633816105526e+00
1.058592457122774722e+00
1.046336409942160373e+00
1.033128641598391351e+00
1.019959927252822363e+00
1.007821042066807227e+00
9.973271353644747039e-01
9.884855810982742241e-01
9.806959778489710011e-01
9.729822983601070785e-01
9.643685153752282746e-01
9.542542274750996922e-01
9.426468086121689849e-01
9.301614081105671339e-01
9.177888011316475136e-01
9.065197628367636096e-01
8.969694425500439605e-01
8.891452142239385514e-01
8.824466764392130402e-01
8.758978019394108028e-01
8.685225634680747708e-01
8.597205596059707133e-01
8.494991643055485042e-01
8.384735268909364603e-01
8.276344225234876228e-01
8.179726263645575868e-01
8.101032877382751130e-01
8.040337805970882989e-01
7.991637035217648011e-01
7.945170292558457747e-01
7.891177305428744848e-01
7.823654059636192537e-01
7.742674294705261806e-01
7.654389503877266909e-01
7.568707438765737150e-01
7.495535850984211823e-01
7.441026233773981868e-01
7.405252326659527151e-01
7.382210115448528676e-01
7.362139327576404657e-01
7.335279690478588854e-01
7.295627189962738957e-01
7.243255565553348152e-01
7.184316310491708490e-01
7.128717176391351495e-01
7.086365914865836446e-01
7.063414019156427637e-01
7.059935228787630468e-01
7.069925529567105960e-01
7.083624648930280099e-01
7.091272314312573322e-01
7.086864511521673293e-01
7.070474980082039895e-01
7.048255213234987382e-01
7.029893900475181479e-01
7.024812205373988094e-01
7.038760332287737898e-01
7.071410731855948262e-01
7.116358101001318825e-01
7.163440878274308643e-01
7.202497502225401194e-01
7.227122669777283903e-01
7.236988831569476366e-01
7.237846191958313691e-01
7.239201213672358248e-01
7.250560359440202385e-01
7.277673833618161225e-01
7.320214086845754364e-01
7.371775816045696983e-01
7.422197459768438144e-01
7.461317456564442452e-01
7.482730503356420648e-01
7.486109050783880114e-01
7.477203303203174833e-01
7.465519723342854963e-01
7.460564773931498417e-01
7.468088659325439194e-01
7.489258813678040250e-01
7.519388027416248343e-01
7.548649404163777499e-01
7.567216047633926745e-01
7.569017319916124809e-01
7.554060336816627030e-01
7.528429967858489835e-01
7.501967340937011341e-01
7.484513583947508542e-01
7.482153566413036749e-01
7.494894404139830213e-01
7.516665459217348744e-01
7.537639835362764940e-01
7.547990636293275823e-01
7.541647224098322333e-01
7.518616714584140936e-01
7.484983977273804712e-01
7.450590140062617328e-01
7.425276330845878014e-01
7.415127419146640975e-01
7.420150520771161551e-01
7.434274997808870689e-01
7.447673953976965411e-01
7.450520492992638300e-01
7.436743976945312529e-01
7.406351521641257873e-01
7.365427996603518546e-01
7.323814529727391553e-01
7.291352248908200551e-01
7.274126023668996410e-01
7.272142969816026703e-01
7.279332449438735697e-01
7.285867566254294880e-01
7.281921423979903496e-01
7.261423384705009143e-01
7.224380564235849400e-01
7.176877832095492904e-01
7.128756316179238883e-01
7.089857144382393228e-01
7.066265186228013473e-01
7.057987557522340527e-01
7.058953620354818659e-01
7.059336478442638230e-01
7.049309235502996263e-01
7.022801253625315931e-01
6.979819648615854799e-01
6.926449289997683723e-01
6.872531305666066404e-01
6.827906823516358692e-01
6.798660713071588146e-01
6.784800090138008999e-01
6.780254316805068848e-01
6.775196496789936962e-01
6.759799733809815914e-01
6.727993389954147752e-01
6.679784581029170054e-01
6.621258176557957009e-01
6.562255304435802294e-01
6.512617092558012910e-01
6.478428410447646391e-01
6.459696373910955858e-01
6.450350345037357824e-01
6.440563427544067077e-01
6.420508725148272866e-01
6.384115599939402808e-01
6.331391167723708913e-01
6.268420298024248716e-01
6.205044118736331438e-01
6.151103757755254087e-01
6.112684084604081969e-01
6.089792215089059324e-01
6.076357511299621539e-01
6.062553076952971187e-01
6.038552015766281977e-01
5.998283689828999288e-01
5.941755214947384012e-01
5.875051460644464818e-01
5.808013554815574242e-01
5.750482625356002631e-01
5.708543541788813069e-01
5.682203419920264231e-01
5.665391621839770409e-01
5.648281251264531955e-01
5.621045411911742562e-01
5.577613465870844278e-01
5.517992528948080233e-01
5.448267470666509071e-01
5.378279418921435573e-01
5.317869501608158966e-01
5.273122588249750109e-01
5.244045794652443249e-01
5.224568482905682654e-01
5.204863756726668678e-01
5.175104719832573918e-01
5.129220734312845975e-01
5.067218915973731308e-01
4.995184134338280790e-01
4.922957517301826402e-01
4.860380192759639617e-01
4.813537030234791847e-01
4.782435145533540100e-01
4.761003900745306994e-01
4.739416399587287887e-01
4.707845745776677582e-01
4.660221301402909799e-01
4.596550182272239882e-01
4.522917257907719257e-01
4.449163656204653816e-01
4.385130505058343342e-01
4.336902673991858137e-01
4.304487278811440776e-01
4.281813681606512767e-01
4.259054986094297779e-01
4.226384295991964524e-01
4.177730973388952274e-01
4.113102134091511930e-01
4.038582647622693256e-01
3.964013641877820460e-01
3.899236244752186109e-01
3.850335325768847738e-01
3.817318000734059580e-01
3.794113631737249248e-01
3.770895322495610436e-01
3.737836176726340720e-01
3.688865556518871047e-01
3.623990577679450098e-01
3.549296109731152615e-01
3.474623280569258954e-01
3.409813218089075559e-01
3.360950791813680505e-01
3.328043117549306928e-01
3.305019557385392992e-01
3.282053215039140159e-01
3.249317194227722694e-01
3.200740857040588194e-01
3.136331319283986452e-01
3.062173450480963899e-01
2.988108378526844189e-01
2.923977231316920999e-01
2.875864878374254641e-01
2.843778435505098234e-01
2.821647264798866073e-01
2.799644469972772387e-01
2.767943154744006984e-01
2.720472681201999698e-01
2.657240165152998101e-01
2.584330476120066944e-01
2.511584741998518777e-01
2.448844090683626462e-01
2.402193391698483893e-01
2.371639760849319212e-01
2.351112560225573911e-01
2.330784893544447234e-01
2.300829864523116497e-01
2.255176835251022915e-01
2.193832921534425440e-01
2.122882992896362175e-01
2.052168177232158719e-01
1.991529602437109303e-01
1.947052138034275348e-01
1.918742899829912474e-01
1.900531249913438303e-01
1.882590292002043197e-01
1.855093129812944719e-01
1.811969125435562988e-01
1.753225394676144189e-01
1.684946807057757512e-01
1.616974490475698301e-01
1.559149572825270502e-01
1.517556923629543864e-01
1.492203658694749302e-01
1.477019140110334972e-01
1.462176471593500671e-01
1.437848756861416499e-01
1.397965358003530889e-01
1.342533390826090023e-01
1.277637724852148382e-01
1.213119487977035033e-01
1.158819808096026444e-01
1.120823554732187644e-01
1.099137843691776611e-01
1.087692037064215550e-01
1.076659238566702037e-01
1.056212551916430875e-01
1.020281339202831206e-01
9.688727162321622566e-02
9.080715525274780930e-02
8.477189759840816907e-02
7.976561144972731110e-02
7.639678375901275131e-02
7.466612610688762308e-02
7.396657470229486830e-02
7.331543991695595175e-02
7.173003212258949324e-02
6.860328752813812936e-02
6.393591771422696413e-02
5.833640963316240324e-02
5.278887607447373814e-02
4.827742982769363950e-02
4.541055784512593868e-02
4.418897170739577440e-02
4.400560762344815635e-02
4.387777596500033739e-02
4.282278710377236675e-02
4.023357724870815083e-02
3.611085798043129486e-02
3.106311625125035558e-02
2.607446485069338585e-02
2.212901656829124875e-02
1.983525835635023549e-02
1.919390179549507539e-02
1.959788309466915096e-02
2.006451262559112367e-02
1.961110075998223623e-02
1.763058370678422665e-02
1.412367304662233078e-02
9.698855731802678501e-03
5.340244551855380904e-03
2.031952296311255977e-03
3.824659174763225811e-04
3.924969959740519203e-04
1.454981740750418409e-03
2.587230523522298688e-03
2.806553716010132087e-03
1.505887527157410630e-03
-1.314056462412009369e-03
-5.044791300390209961e-03
-8.702204197247456058e-03
-1.130218236345496494e-02
-1.223623884670558930e-02
-1.150366206637442809e-02
-9.711515813517979101e-03
-7.842489716417280765e-03
-6.879273403352724470e-03
-7.428930665381648472e-03
-9.490749921877376233e-03
-1.245624422053548397e-02
-1.534130077182626825e-02
-1.716180678621729433e-02
-1.730927531140366224e-02
-1.578299476676073287e-02
-1.319002894334378451e-02
-1.051306746943654613e-02
-8.734799973316099281e-03
-8.462290246040872488e-03
-9.694826706986639508e-03
-1.182392240384575952e-02
-1.321881519844872108e-02
-1.227150111691236931e-02
-8.407630453361276610e-03
-1.660628873600838735e-03
7.328302584882952046e-03
1.754233704737917510e-02
2.796464763917738683e-02
3.795403332278984854e-02
4.747706843241208952e-02
5.710810267392123218e-02
6.779711159041448831e-02
8.049407072499480120e-02
9.577332978353721160e-02
1.136014631002363467e-01
1.333372696376066147e-01
1.539639225209352702e-01
1.744645948755120524e-01
1.941980856638518549e-01
2.131309692201476536e-01
2.318375952502766402e-01
2.512679392973387604e-01
2.723719769044339878e-01
2.957240577774386536e-01
3.212907562505473713e-01
3.484308712862720370e-01
3.761275760099040966e-01
4.033640435467323315e-01
4.294990728592689155e-01
4.544992382817095167e-01
4.789388895199300222e-01
5.037680021170298783e-01
5.299365516161116396e-01
5.580188877230484179e-01
5.879815847720364363e-01
6.191834417255897005e-01
6.506076317089954930e-01
6.812373278475438720e-01
7.104313291037483991e-01
7.381562098118035209e-01
7.649863196775869012e-01
7.918716342441968203e-01
8.197621290547337791e-01
8.492321538150744420e-01
8.802482828594132558e-01
9.121693151502630048e-01
9.439784238129124150e-01
9.746587819726533208e-01
1.003569188591996619e+00
1.030676218005138312e+00
1.056554219917953841e+00
1.082153169873542709e+00
1.108423043415007081e+00
1.135938190248221513e+00
1.164665184707380563e+00
1.193962825755000123e+00
1.222814286516365367e+00
1.250202740116767908e+00
1.275486985518720529e+00
1.298633597056417566e+00
1.320216924435736461e+00
1.341186943199777604e+00
1.362493628891639164e+00
1.384711331217197916e+00
1.407806624510649529e+00
1.431138307734506565e+00
1.453689554014057750e+00
1.474443536474593364e+00
1.492759054078625747e+00
1.508602681160350789e+00
1.522548767425643712e+00
1.535547288417605127e+00
1.548548219679334759e+00
1.562125910916708937e+00
1.576246936463922887e+00
1.590270095283488061e+00
1.603178560500696515e+00
1.613955505240836308e+00
1.621959728466419337e+00
1.627157804511642825e+00
1.630124083082379105e+00
1.631808539721733009e+00
1.633161149972801596e+00
1.634756263541462085e+00
1.636560454761908145e+00
1.638441290439859976e+00
1.639918278334483670e+00
1.640015941757079654e+00
1.638134429856169971e+00
1.634281667151959549e+00
1.629073353536334867e+00
1.623500814738404685e+00
1.618555376487278652e+00
1.614852738674843247e+00
1.612400825821303396e+00
1.610599787075181144e+00
1.608474145747776918e+00
1.605048425150386482e+00
1.599722774431536765e+00
1.592505118111430251e+00
1.584011156081952088e+00
1.575232214072213921e+00
1.567159617811325178e+00
1.560409067191170784e+00
1.554988486731956998e+00
1.550298025582203643e+00
1.545362207053212256e+00
1.539205554456281044e+00
1.531228216939933606e+00
1.521438119024373536e+00
1.510450960601487536e+00
1.499258067400385475e+00
1.488850765150175892e+00
1.479844753742745933e+00
1.472247957698299414e+00
1.465460526165359489e+00
1.458506982455226364e+00
1.450411849879196691e+00
1.440575277585794511e+00
1.429005190095225197e+00
1.416317287299373007e+00
1.403502894927348921e+00
1.391553338708262810e+00
1.381084318534000266e+00
1.372103758924766659e+00
1.364011809029083144e+00
1.355832992158248596e+00
1.346591831623563884e+00
1.335688476573551275e+00
1.323130851528415031e+00
1.309534656380040962e+00
1.295891216857539385e+00
1.283191858690019505e+00
1.272052281769367799e+00
1.262480410615788085e+00
1.253876394377803738e+00
1.245264756366714742e+00
1.235670019893817750e+00
1.224492334107637470e+00
1.211739623528377496e+00
1.198027588047923864e+00
1.184347553395388442e+00
1.171690845299878214e+00
1.160673163653280549e+00
1.151302432975799706e+00
1.142978802415958617e+00
1.134726795285055490e+00
1.125570934894389641e+00
1.114911370392485113e+00
1.102756026299545500e+00
1.089720602507457059e+00
1.076796424745329217e+00
1.064974818742272067e+00
1.054871484390171643e+00
1.046494346209231763e+00
1.039243553347976023e+00
1.032143629117703965e+00
1.024219096829713349e+00
1.014870105632527331e+00
1.004104580046351280e+00
9.925382199630691238e-01
9.811623511117935070e-01
9.709682992216336350e-01
9.625717641844733219e-01
9.559806705205191601e-01
9.505951673782928601e-01
9.454397780690936282e-01
9.395390259042204484e-01
9.322930600321966965e-01
9.237098049732271887e-01
9.144049606191970714e-01
9.053698526992164375e-01
8.975958069423947139e-01
8.916985232406191564e-01
8.876859261140926938e-01
8.849581647113387017e-01
8.825397623436572747e-01
8.794552423223445103e-01
8.751047537959266709e-01
8.694962212846069072e-01
8.632453446802699215e-01
8.573434497120278053e-01
8.527818621089896522e-01
8.501762817630406088e-01
8.495346331943857132e-01
8.502570655515478970e-01
8.513681021458254783e-01
8.518922662885183295e-01
8.512297071281487160e-01
8.492930336841494343e-01
8.465839200901802419e-01
8.440656266891696236e-01
8.427014138240432883e-01
8.430789160005074390e-01
8.451779923525835070e-01
8.483707266426128157e-01
8.516535767957136294e-01
8.540230007370009924e-01
8.548510822288175603e-01
8.541176804051859861e-01
8.524104297718099188e-01
8.506925906716162888e-01
8.499274234475353573e-01
8.507025626052697742e-01
8.529978672788416372e-01
8.561854212305950451e-01
8.592616823856422670e-01
8.612231086691038984e-01
8.614417838433204855e-01
8.598975670423137929e-01
8.571780927717890242e-01
8.542466213746737758e-01
8.521536887875027499e-01
8.515880063929639476e-01
8.525501352501485552e-01
8.544328610464652085e-01
8.562533436320988178e-01
8.570287428572342936e-01
8.561518444092801605e-01
8.536232093473274940e-01
8.500511741021471446e-01
8.464197009417340212e-01
8.437127521340860303e-01
8.425386641099738005e-01
8.428979979284870749e-01
8.441835392770367097e-01
8.454124480058046176e-01
8.456018839649765972e-01
8.441446328419632827e-01
8.410412556958528629e-01
8.369000889574184088e-01
8.327050948946550513e-01
8.294402357755586985e-01
8.277138480309010893e-01
8.275264927197715226e-01
8.282709555295801884e-01
8.289643963105113311e-01
8.286239749127505272e-01
8.266424770237051911e-01
8.230204637024666203e-01
8.183662713798064425e-01
8.136638623237194556e-01
8.098971988022038992e-01
8.076746172460287365e-01
8.069966787142850428e-01
8.072561688943831193e-01
8.074702476365055448e-01
8.066560747908381179e-01
8.042064360447901405e-01
8.001218924574512448e-01
7.950107804595935024e-01
7.898570623192129325e-01
7.856447003043047772e-01
7.829820308456411082e-01
7.818696150023121128e-01
7.817002384617249833e-01
7.814910610740674057e-01
7.802592426895231803e-01
7.773975689955003876e-01
7.729066010510898810e-01
7.673946752870632881e-01
7.618457539714157400e-01
7.572437993721446992e-01
7.541971479200204609e-01
7.527063606741331014e-01
7.521642233218930329e-01
7.515878957134832783e-01
7.499945376990891921e-01
7.467769349661200762e-01
7.419356485736653406e-01
7.360790149524988335e-01
7.301909963706143536e-01
7.252555550960079200e-01
7.218810275594511605e-01
7.200679748200350394e-01
7.192091825651677484e-01
7.183218106450341978e-01
7.164230189098197421e-01
7.129055930469323510e-01
7.077700941154633218e-01
7.016248585461838383e-01
6.954538486070888093e-01
6.902410265661760302e-01
6.865947288542159077e-01
6.845155165302978517e-01
6.833961752818331625e-01
6.822538649590043081e-01
6.801057454119969758e-01
6.763446023282203567e-01
6.709709967667638608e-01
6.645932651584001150e-01
6.581953697711249163e-01
6.527612728729341729e-01
6.488993108945981803e-01
6.466100448952082358e-01
6.452862605621729752e-01
6.439451177456771980e-01
6.416037762959060364e-01
6.376550219002674602e-01
6.320994156178535439e-01
6.255452938794342499e-01
6.189766189530052642e-01
6.133773531065641604e-01
6.093558327708814559e-01
6.069126190050470049e-01
6.054404974964712194e-01
6.039566280953364563e-01
6.014781706518285143e-01
5.973979108533575832e-01
5.917164097590122962e-01
5.850420037995658351e-01
5.783586552430132199e-01
5.726503263573503588e-01
5.685253535733488794e-01
5.659842979500983029e-01
5.644199451750082641e-01
5.628494550982634514e-01
5.602899875700491084e-01
5.561343282777728714e-01
5.503830382805263710e-01
5.436444540090817901e-01
5.369025377314311509e-01
5.311412517155758017e-01
5.269689323922834845e-01
5.243861408206453856e-01
5.227856626880714730e-01
5.211846578447446587e-01
5.186002861408504083e-01
5.144253332637981346e-01
5.086603602726786910e-01
5.019137035982617068e-01
4.951693255085451439e-01
4.894111882715238004e-01
4.852476283179693040e-01
4.826792067069727299e-01
4.810987091259404380e-01
4.795232954250601143e-01
4.769701254545156699e-01
4.728319849017155185e-01
4.671094348257502915e-01
4.604108116573918386e-01
4.537200776646357903e-01
4.480211951154773331e-01
4.439225004406892605e-01
4.414245546993608160e-01
4.399201435789013015e-01
4.384264269294964045e-01
4.359605646013289815e-01
4.319153422818089449e-01
4.262913210300278144e-01
4.196968372767544975e-01
4.131158532899872893e-01
4.075323313377208212e-01
4.035546078507268875e-01
4.011832438880965079e-01
3.998110251372372637e-01
3.984551114483343426e-01
3.961326626715725996e-01
3.922364644943617251e-01
3.867670779757913513e-01
3.803328395466331613e-01
3.739177114748830077e-01
3.685056560285362992e-01
3.647050096383656625e-01
3.625163333634598972e-01
3.613324128912290267e-01
3.601704080718584056e-01
3.580474787555310012e-01
3.543564106296569483e-01
3.490977647533263784e-01
3.428798775573100310e-01
3.366867113096064235e-01
3.315022282782082996e-01
3.279347648938881754e-01
3.259848822157372927e-01
3.250453659311634547e-01
3.241333758903516826e-01
3.222660719434867760e-01
3.188362397779778701e-01
3.138444404529158738e-01
3.078990103990714156e-01
3.019839118844405701e-01
2.970831071770189125e-01
2.938049327075789030e-01
2.921499495352100073e-01
2.915109433473203060e-01
2.909050739940975405e-01
2.893495013257237347e-01
2.862370110296085790e-01
2.815681641648429823e-01
2.759512971621967958e-01
2.703703722896682593e-01
2.658093518152523926e-01
2.628765721697197688e-01
2.615725944121620183e-01
2.612902042299867778e-01
2.610465614733793460e-01
2.598588259925247446e-01
2.571197834748313316e-01
2.528299949793900159e-01
2.475977969369735077e-01
2.424071516155754946e-01
2.382420212831917461e-01
2.357107423705958604e-01
2.348138759368765260e-01
2.349442076694430726e-01
2.351188974184811598e-01
2.343551050341737552e-01
2.320456162039305215e-01
2.281909919868431169e-01
2.233995688136807545e-01
2.186553089524415905e-01
2.149421746711204506e-01
2.128685024004888238e-01
2.124348531996378131e-01
2.130340127559735564e-01
2.136831409196840725e-01
2.133993975409528565e-01
2.115755683071886828e-01
2.082122142774821272e-01
2.039176718826050394e-01
1.996759033905537439e-01
1.964708710693214844e-01
1.949109113496829415e-01
1.949965852907268316e-01
1.961206785798618457e-01
1.973003510672743654e-01
1.975527626031470252e-01
1.962706988748897929e-01
1.934547209415937719e-01
1.897131652340283969e-01
1.860299940201919910e-01
1.833891695680792688e-01
1.823990283084616082e-01
1.830601313004300568e-01
1.847652642313921678e-01
1.865315869515324632e-01
1.873762593110382124e-01
1.866920669973167191e-01
1.844795710694579205e-01
1.813471079582344714e-01
1.789592157927431537e-01
1.789567870648934578e-01
1.819126897496773365e-01
1.877920164504023604e-01
1.959520843986981009e-01
2.053745849889690167e-01
2.150412096156171515e-01
2.243092755102717717e-01
2.331438752762424738e-01
2.421178768885191290e-01
2.521797741593195252e-01
2.642780609008556492e-01
2.789856050881190375e-01
2.962674993244202026e-01
3.154810608413858297e-01
3.356079810334202107e-01
3.556299512949276376e-01
3.749042888575366828e-01
3.933960863245558603e-01
4.116782116709770123e-01
4.306991587090147622e-01
4.514074212508837891e-01
4.743758672715753244e-01
4.995695893743986038e-01
5.263459047909804234e-01
5.536865049157271290e-01
5.805730811430421801e-01
6.063629507045525946e-01
6.310212062035683855e-01
6.551207156150807842e-01
6.796099727513031930e-01
7.054374714244536770e-01
7.331760796095202481e-01
7.627908899098131412e-01
7.936392195569615948e-01
8.247027599453676805e-01
8.549632024694363563e-01
8.837778643607957507e-01
9.111118382227549883e-01
9.375379920303066328e-01
9.640048195956633093e-01
9.914608147310410846e-01
1.020478845411430635e+00
1.051024004240141529e+00
1.082453608448801674e+00
1.113749349431814029e+00
1.143892918583585327e+00
1.172241633135741923e+00
1.198760585691593050e+00
1.224022644226129719e+00
1.248976302551566997e+00
1.274570054480120840e+00
1.301376767986780703e+00
1.329361535674856487e+00
1.357881674775976988e+00
1.385918876684545165e+00
1.412454832794965087e+00
1.436846860338865772e+00
1.459060051919554901e+00
1.479667275512025926e+00
1.499617024928492581e+00
1.519857793981168825e+00
1.540962450645047221e+00
1.562896087523435673e+00
1.585016021847963197e+00
1.606303945013033196e+00
1.625741548413050852e+00
1.642686149279642516e+00
1.657102840216119644e+00
1.669564489197471469e+00
1.681019590035913058e+00
1.692416636543660813e+00
1.704328496695704187e+00
1.716720263095353305e+00
1.728949252974236961e+00
1.739997157726756560e+00
1.748845668747317728e+00
1.754852103267548591e+00
1.757981553890759052e+00
1.758806888591940343e+00
1.758276601183305310e+00
1.757339185477071020e+00
1.757061118909393205e+00
1.757930070695427505e+00
1.759346808792826122e+00
1.760336475322015204e+00
1.759924212403422006e+00
1.757510787994697843e+00
1.753104745425175137e+00
1.747322403395866530e+00
1.741155706445009388e+00
1.735596599110844407e+00
1.731261400094384006e+00
1.728158652724958388e+00
1.725689124960223086e+00
1.722877958920600250e+00
1.718750296726518911e+00
1.712706906335629276e+00
1.704756331077265097e+00
1.695514889652439461e+00
1.685974526599390622e+00
1.677127186456355945e+00
1.669589187924348739e+00
1.663369074332702091e+00
1.657867613639066651e+00
1.652109947963869230e+00
1.645121219427537973e+00
1.636302195987721309e+00
1.625661420973753879e+00
1.613815213086648770e+00
1.601755516864641571e+00
1.590474276845974977e+00
1.580587811731659631e+00
1.572104664851028399e+00
1.564425604161731487e+00
1.556575771784196593e+00
1.547580309838849866e+00
1.536839986283343507e+00
1.524363344447009050e+00
1.510766703030861136e+00
1.497042006573136685e+00
1.484181199612073732e+00
1.472800600848686248e+00
1.462908753612305990e+00
1.453906425860584717e+00
1.444818759713949463e+00
1.434670897292827485e+00
1.422863606554867211e+00
1.409405430829403061e+00
1.394912688817450563e+00
1.380377325057242421e+00
1.366791284087021996e+00
1.354770884607800374e+00
1.344324669948909756e+00
1.334853408068001457e+00
1.325382241085502288e+00
1.314936311121839507e+00
1.302916386134663762e+00
1.289331009453307919e+00
1.274796499778785286e+00
1.260304801649333895e+00
1.246847859603191777e+00
1.235041992341372463e+00
1.224895743193208375e+00
1.215809880116348163e+00
1.206809545231223080e+00
1.196919880658258162e+00
1.185541654355103613e+00
1.172683409651091413e+00
1.158961465247237532e+00
1.145367765681779781e+00
1.132894255492952196e+00
1.122157253381772746e+00
1.113165302677571855e+00
1.105319171338000173e+00
1.097644001483485177e+00
1.089164935234454346e+00
1.079282740548557884e+00
1.068005960755128214e+00
1.055950914555179976e+00
1.044109546486950091e+00
1.033473801088676147e+00
1.024659997061372785e+00
1.017676677734373092e+00
1.011924611065325941e+00
1.006428939174657033e+00
1.000214804182798067e+00
9.926829740473966934e-01
9.838419920977856670e-01
9.743081770349798498e-01
9.650734733972164969e-01
9.571298257227330852e-01
9.510935527125439215e-01
9.469731976959804287e-01
9.441695286306940327e-01
9.417076876371119898e-01
9.386128168356612234e-01
9.342856841839921600e-01
9.287348330114382211e-01
9.225765820190098276e-01
9.168028757449516730e-01
9.124056587274949059e-01
9.100012496676559426e-01
9.095981918947680933e-01
9.105972533664803414e-01
9.120235762032201654e-01
9.129023025254134893e-01
9.126342002907142925e-01
9.111423542726020397e-01
9.089357010767343814e-01
9.069732999320900824e-01
9.062142100676480183e-01
9.072418648751626735e-01
9.100319223747072028e-01
9.139522652146738757e-01
9.179951502062303481e-01
9.211528341605446091e-01
9.227931997260089281e-01
9.228919049226965710e-01
9.220323831423594685e-01
9.211736936139813814e-01
9.212748955665396311e-01
9.229194223917861484e-01
9.260829321097976408e-01
9.301333073689637132e-01
9.340628049804524657e-01
9.368636817554322205e-01
9.379038203422950248e-01
9.371588787611144777e-01
9.352122904036451745e-01
9.330231144988659908e-01
9.315504102757555804e-01
9.314964173549502569e-01
9.329721231338871101e-01
9.353701949836816798e-01
9.377076744382253359e-01
9.390016030314051187e-01
9.386446481343403425e-01
9.366372524898253227e-01
9.335876342123358151e-01
9.304796372535774074e-01
9.282971055652501358e-01
9.276482572618305333e-01
9.285335350861165793e-01
9.303456064092213706e-01
9.321015127650361665e-01
9.328182956874516707e-01
9.318886225475832008e-01
9.293129360882270706e-01
9.256994544238604794e-01
9.220320215061853508e-01
9.192944812869031646e-01
9.180950518804914529e-01
9.184341760297466406e-01
9.197045211057834901e-01
9.209231286424945928e-01
9.211070401737664337e-01
9.196489230707168838e-01
9.165492200761422570e-01
9.124161493045174209e-01
9.082335547075479631e-01
9.049852802369341420e-01
9.032795440071530457e-01
9.031167887610006551e-01
9.038896818695920654e-01
9.046152648668178697e-01
9.043105792865693271e-01
9.023682924999608668e-01
8.987888472497890247e-01
8.941804616505312220e-01
8.895269796538891605e-01
8.858122452115638756e-01
8.836444764380347872e-01
8.830241160760960994e-01
8.833438314968639071e-01
8.836206642342300244e-01
8.828716558220816024e-01
8.804894736315356241e-01
8.764745604053902905e-01
8.714351342581182491e-01
8.663550391414260865e-01
8.622181190070138390e-01
8.596325919693584838e-01
8.585989007712565568e-01
8.585097127838228204e-01
8.583820695409480894e-01
8.572330125765229569e-01
8.544552092616629624e-01
8.500491023391637535e-01
8.446229099235029736e-01
8.391604759663823243e-01
8.346456444195032853e-01
8.316866333973441661e-01
8.302838856426995040e-01
8.298300685266860599e-01
8.293422235831940936e-01
8.278373923461154194e-01
8.247082421865614688e-01
8.199552158473313312e-01
8.141865314429019840e-01
8.083860329249751286e-01
8.035375642452524669e-01
8.002493435182115311e-01
7.985218134866480799e-01
7.977476415216775418e-01
7.969438691571901767e-01
7.951275379270771326e-01
7.916913152024535050e-01
7.866356437261150525e-01
7.805687416125395295e-01
7.744744528134281936e-01
7.693366212804830795e-01
7.657634651281821636e-01
7.637554270993217598e-01
7.627051745650158532e-01
7.616297490591537045e-01
7.595461921156307916e-01
7.558471711055575470e-01
7.505331287717321720e-01
7.442122832286319767e-01
7.378684784279588849e-01
7.324855583214142651e-01
7.286717410234755388e-01
7.264274692769391306e-01
7.251454104529195810e-01
7.238426060853080379e-01
7.215360977079952054e-01
7.176185526920959568e-01
7.120904137804050515e-01
7.055598990874044629e-01
6.990108525647908966e-01
6.934271181642677195e-01
6.894169140003133522e-01
6.869806828157237755e-01
6.855110919816130854e-01
6.840251830318723192e-01
6.815399975003921806e-01
6.774482027582877652e-01
6.717502415483552758e-01
6.650543319850726887e-01
6.583443180201412614e-01
6.526040436052628069e-01
6.484417268549146351e-01
6.458578105118930601e-01
6.442449619473129552e-01
6.426202226950651353e-01
6.400006342890407485e-01
6.357788641003544461e-01
6.299553548718005436e-01
6.231383247178596818e-01
6.163116175902321192e-01
6.104590774406210008e-01
6.061889223835010831e-01
6.035015951616705676e-01
6.017897631462434394e-01
6.000704678711107354e-01
5.973607508701629376e-01
5.930532795145153635e-01
5.871484965469643269e-01
5.802546200819872491e-01
5.733554940712858317e-01
5.674349624665616654e-01
5.631012433822921714e-01
5.603547795612737747e-01
5.585882383746233470e-01
5.568186613562271514e-01
5.540630900399777792e-01
5.497141917969924352e-01
5.437724093700639916e-01
5.368459608736725341e-01
5.299186902595194315e-01
5.239744414793059413e-01
5.196214326475094847e-01
5.168601065069261535e-01
5.150831304286707102e-01
5.133075459466340806e-01
5.105503945947069688e-01
5.062043437440046922e-01
5.002698361373230096e-01
4.933550898891396197e-01
4.864439489511548365e-01
4.805202572750746914e-01
4.761922329753721095e-01
4.734603187948450698e-01
4.717171821046103330e-01
4.699798644385547175e-01
4.672654073305704814e-01
4.629664781517737193e-01
4.570835196449587468e-01
4.502247499246052609e-01
4.433740129424142973e-01
4.375151526500874466e-01
4.332563871621019636e-01
4.305981592212540510e-01
4.289331361986584157e-01
4.272783596282062613e-01
4.246508710437880696e-01
4.204433378165188251e-01
4.146562026891948971e-01
4.078976837762935403e-01
4.011516250295150132e-01
3.954018704005650142e-01
3.912566380039181890e-01
3.887163705823705739e-01
3.871737355070399289e-01
3.856457743118125725e-01
3.831495285305813736e-01
3.790776655344612056e-01
3.734306280662487154e-01
3.668166342404213798e-01
3.602195280086809004e-01
3.546231533227288124e-01
3.506357282970424816e-01
3.482576956744179997e-01
3.468817228259706287e-01
3.455248512855909060e-01
3.432041225871704238e-01
3.393122041018219459e-01
3.338495385723440068e-01
3.274243441132129173e-01
3.210204646761302683e-01
3.156217442127975392e-01
3.118364008376945384e-01
3.096648772936140825e-01
3.084998409516734319e-01
3.073583333457650668e-01
3.052573960097748618e-01
3.015896963148200771e-01
2.963556770036975263e-01
2.901635561908844640e-01
2.839971778280826475e-01
2.788403858669935564e-01
2.753013984220946675e-01
2.733806582361820170e-01
2.724708326803708669e-01
2.715889632885519211e-01
2.697520915946159947e-01
2.663528849696770173e-01
2.613917861565336342e-01
2.554770132696608242e-01
2.495924102607612605e-01
2.447218210815354233e-01
2.414734638464639538e-01
2.398477812983408619e-01
2.392374408082791337e-01
2.386594839101754961e-01
2.371309521379145469e-01
2.340445128626134630e-01
2.294006088270692245e-01
2.238074581457585310e-01
2.182489047703835006e-01
2.137087926526455572e-01
2.107953399070220946e-01
2.095089892763095929e-01
2.092424081316226481e-01
2.090126380068525469e-01
2.078367204358901599e-01
2.051073227898492501e-01
2.008248878115261593e-01
1.955976336154017503e-01
1.904094041531731174e-01
1.862440433765424064e-01
1.837097693999904524e-01
1.828070249663114322e-01
1.829284774466201635e-01
1.830911683748074892e-01
1.823121392847641964e-01
1.799840575476053528e-01
1.761073659061269669e-01
1.712902824748070152e-01
1.665166512053471715e-01
1.627703160494484991e-01
1.606594951215886413e-01
1.601846311645660492e-01
1.607383915494902948e-01
1.613378178102571892e-01
1.609999514807562981e-01
1.591174599321013294e-01
1.556907859070887357e-01
1.513281475201971593e-01
1.470133887231294123e-01
1.437303534675822281e-01
1.420872598680380239e-01
1.420845506672913372e-01
1.431148932364569304e-01
1.441953291094253409e-01
1.443428998200874946e-01
1.429502727395587647e-01
1.400178906106348820e-01
1.361539715477939061e-01
1.323423595027369004e-01
1.295668984271660662e-01
1.284358064355582141e-01
1.289495262707116008e-01
1.305007253037388515e-01
1.321064450685293656e-01
1.327837270989777052e-01
1.319252387661973558e-01
1.295314228129833545e-01
1.262104973538144825e-01
1.229463063403926082e-01
1.207226937244189335e-01
1.201478776203703802e-01
1.212223007710442196e-01
1.233386305475546035e-01
1.255139084837925134e-01
1.267651761136486810e-01
1.264851008082379380e-01
1.246741253103569175e-01
1.219404677344805149e-01
1.192679720323171488e-01
1.183304168538815287e-01
1.204019021664308603e-01
1.254467914444496457e-01
1.328216727907366446e-01
1.415075084708696529e-01
1.504852607504261475e-01
1.591115177322077190e-01
1.673506428906972598e-01
1.757747750720590196e-01
1.853316789596809733e-01
1.969691192369512900e-01
2.112592347500339418e-01
2.281663889734113770e-01
2.470471700098852141e-01
2.668825401250327634e-01
2.866534615844312239e-01
3.057165224908820478e-01
3.240360863188680995e-01
3.421842919145509643e-01
3.611089039613233354e-01
3.817576871425721885e-01
4.047027803044587202e-01
4.299085469214691257e-01
4.567315750964019982e-01
4.841528270948355361e-01
5.111532651823469386e-01
5.370894774617377410e-01
5.619258274074909743e-01
5.862344538657707771e-01
6.109631215199649024e-01
6.370595950534618801e-01
6.650960133124254048e-01
6.950367397713382855e-01
7.262383625330020021e-01
7.576818438629953079e-01
7.883481460268908503e-01
8.175938571274949940e-01
8.453833406392882166e-01
8.722887354084351008e-01
8.992578061183214011e-01
9.272383174523399774e-01
9.568024082566524147e-01
9.879144420057397458e-01
1.019931006802407891e+00
1.051833064912229165e+00
1.082601578600782988e+00
1.111593135970870838e+00
1.138772100496975526e+00
1.164710611025260523e+00
1.190356432239114692e+00
1.216657328821925788e+00
1.244185439619857725e+00
1.272905128107393757e+00
1.302172982387334699e+00
1.330969964725258192e+00
1.358277037386742325e+00
1.383450788474585469e+00
1.406455581463274873e+00
1.427863555198970680e+00
1.448622474365060420e+00
1.469680103644937175e+00
1.491608581884761975e+00
1.514372272559017629e+00
1.537327763770505173e+00
1.559456017784802473e+00
1.579737996867486283e+00
1.597530289121358305e+00
1.612797258020901570e+00
1.626111042412279994e+00
1.638419406978881554e+00
1.650670116404094667e+00
1.663435309534083251e+00
1.676679349843328781e+00
1.689758825480939031e+00
1.701654699161809337e+00
1.711347933808345712e+00
1.718195118181893744e+00
1.722160616415480128e+00
1.723816568013814221e+00
1.724110738318825886e+00
1.723990892672451203e+00
1.724507313799499286e+00
1.726132428829921794e+00
1.728267706190296238e+00
1.729938988469975625e+00
1.730172118258314740e+00
1.728368563981890205e+00
1.724537569438961526e+00
1.719296153799469762e+00
1.713636962070578029e+00
1.708552639259451222e+00
1.704660204536030621e+00
1.701968901698575065e+00
1.699880199173659179e+00
1.697419939550640855e+00
1.693613965418873102e+00
1.687863745204930099e+00
1.680178522707073796e+00
1.671175317095243695e+00
1.661846773376605135e+00
1.653185536558321678e+00
1.645808625810334158e+00
1.639725284930900973e+00
1.634336982346600076e+00
1.628669560646785142e+00
1.621748862420809845e+00
1.612976356095251695e+00
1.602361285468368202e+00
1.590520669710104196e+00
1.578447153827619465e+00
1.567133382828080013e+00
1.557196375881427119e+00
1.548645376785918959e+00
1.540881853968133708e+00
1.532931650017421932e+00
1.523820607523142856e+00
1.512950194911869772e+00
1.500329655981863075e+00
1.486576009903063156e+00
1.472681901682634464e+00
1.459639976327741895e+00
1.448067253008325173e+00
1.437972975522643138e+00
1.428758612297274189e+00
1.419450005921571334e+00
1.409072998984887803e+00
1.397029059913802662e+00
1.383327432506572086e+00
1.368585135933139574e+00
1.353794815200670465e+00
1.339949115316324546e+00
1.327665055450045983e+00
1.316951879400092507e+00
1.307211055593042293e+00
1.297468426618247461e+00
1.286749835065062575e+00
1.274456749360065366e+00
1.260598413301515119e+00
1.245791846059351782e+00
1.231029692640740025e+00
1.217304598052844522e+00
1.205233581465605441e+00
1.194825886677281623e+00
1.185482982114452355e+00
1.176230710366466203e+00
1.166094914022681950e+00
1.154477061509675773e+00
1.141386396625704958e+00
1.127439938540712339e+00
1.113630332261861922e+00
1.100950222796318823e+00
1.090016629314020769e+00
1.080838795613228598e+00
1.072818190120519377e+00
1.064980655425246781e+00
1.056352034116764038e+00
1.046333794621649327e+00
1.034935180738161931e+00
1.022773211636242019e+00
1.010840532323054264e+00
1.000129787805762449e+00
9.912579972543074103e-01
9.842344044669478764e-01
9.784604778702615802e-01
9.729620600536041941e-01
9.667649936063240634e-01
9.592707469550040278e-01
9.504885638979010398e-01
9.410354636049534927e-01
9.319040910833299440e-01
9.240870913401931785e-01
9.182014835454825885e-01
9.142565114974587903e-01
9.116536436226978513e-01
9.094187225105538896e-01
9.065775907503801356e-01
9.025317167687550990e-01
8.972903443639375087e-01
8.914704927058675343e-01
8.860648068017092926e-01
8.820659316586281218e-01
8.800908864465637471e-01
8.801489149637753417e-01
8.816414856368405273e-01
8.835944410551147543e-01
8.850336238079480333e-01
8.853605023219203174e-01
8.845915582108859754e-01
8.833129559450115798e-01
8.824602017584172176e-01
8.829688018852163145e-01
8.853986367222996812e-01
8.897018112948771318e-01
8.952226552564773732e-01
9.009298724234044986e-01
9.057921666119629345e-01
9.091538674756816096e-01
9.109670800397701163e-01
9.117916847011198200e-01
9.125631876938454790e-01
9.142170952520625171e-01
9.173132877726628553e-01
9.218038702808555307e-01
9.270331724301695830e-01
9.319698980369111041e-01
9.355827509173800793e-01
9.372160607251075470e-01
9.368219324853035435e-01
9.349602465948592123e-01
9.327909881791106583e-01
9.315066022320397376e-01
9.317156589535058320e-01
9.334189531716877708e-01
9.360095043430827211e-01
9.385047060869637914e-01
9.399219520226042013e-01
9.396542616065012288e-01
9.377024296668333703e-01
9.346750264034604516e-01
9.315562478534661350e-01
9.293302900539341938e-01
9.286057232047267851e-01
9.293833421340190748e-01
9.310561662983107833e-01
9.326415893168762405e-01
9.331570048089844471e-01
9.319954322311347905e-01
9.291576664115059891e-01
9.252522775499577579e-01
9.212634616835745360e-01
9.181754148494397638e-01
9.165967072474136002e-01
9.165281337056743194e-01
9.173627136807193105e-01
9.181178407918217932e-01
9.178109086582548759e-01
9.158349367365152816e-01
9.121907198547830609e-01
9.074868282129163743e-01
9.027074578479995504e-01
8.988368047971162511e-01
8.964834392601285229e-01
8.956481560652134188e-01
8.957239746688677728e-01
8.957282886903649155e-01
8.946784917489779554e-01
8.919676033012043925e-01
8.875964181752226123e-01
8.821735065708929957e-01
8.766830645252994270e-01
8.721092880755255683e-01
8.690607474214311345e-01
8.675382373911951772e-01
8.669347774413148633e-01
8.662677611910629683e-01
8.645545822597130448e-01
8.611882601037615936e-01
8.561695895513873333e-01
8.501071408024508669e-01
8.439851098940377438e-01
8.387876928632272966e-01
8.351234599098839029e-01
8.329932058621839497e-01
8.317899501766251591e-01
8.305310864724800846e-01
8.282340083690223898e-01
8.242917353227492416e-01
8.187050621618392476e-01
8.120825590861523446e-01
8.054084221327725279e-01
7.996668473387837928e-01
7.954664049040458540e-01
7.928078896567389844e-01
7.910843210533577974e-01
7.893130927131740693e-01
7.865115982554654606e-01
7.820728571367268067e-01
7.759976641851362711e-01
7.688945896005545677e-01
7.617478294200662470e-01
7.555415796807546380e-01
7.508844105824796777e-01
7.477771169534195295e-01
7.456127182500715822e-01
7.434086080917089445e-01
7.401821800976046140e-01
7.353264537242562016e-01
7.288422237998423148e-01
7.213380605242206700e-01
7.137981599344811467e-01
7.072067180677018561e-01
7.021723051237447333e-01
6.986957159307879417e-01
6.961699699453314238e-01
6.936124607866438474e-01
6.900405820739994311e-01
6.848473532638982286e-01
6.780335691845152946e-01
6.702078000357131193e-01
6.623542418545751431e-01
6.554570906781851392e-01
6.501249167064029333e-01
6.463585147674070219e-01
6.435509043176943500e-01
6.407194789765383591e-01
6.368816323632119358e-01
6.314303839342128022e-01
6.243665285177192326e-01
6.162986363135911638e-01
6.082109033589107039e-01
6.010875256907667330e-01
5.955370735090145251e-01
5.915603416418341309e-01
5.885503495457251599e-01
5.855244908399563908e-01
5.815001591438027084e-01
5.758703739137621680e-01
5.686359299780118226e-01
5.604053975364132745e-01
5.521629726260501858e-01
5.448928512840062188e-01
5.392036037101413104e-01
5.350960247326336239e-01
5.319631338079806593e-01
5.288223245554571905e-01
5.246909905943316632e-01
5.189621513811059073e-01
5.116366017439553104e-01
5.033229118827446946e-01
4.950052778345513382e-01
4.876678956364654538e-01
4.819193354883427038e-01
4.777603922183644714e-01
4.745840852830238710e-01
4.714078083016002840e-01
4.672489548933609904e-01
4.615005445148055996e-01
4.541633719941126079e-01
4.458460075311442283e-01
4.375326471629782943e-01
4.302074869267046298e-01
4.244790970221811177e-01
4.203482722775864211e-01
4.172080321494195387e-01
4.140757702569478615e-01
4.099688802194511039e-01
4.042803814934226581e-01
3.970110689070428522e-01
3.887695126601687923e-01
3.805399087898903576e-01
3.733064533332848822e-01
3.676777164902169659e-01
3.636544930888616634e-01
3.606298025857208045e-01
3.576210386000611696e-01
3.536455947511622511e-01
3.480964904955169414e-01
3.409745206613051249e-01
3.328882554483871825e-01
3.248218908938451110e-01
3.177596230347677353e-01
3.123100220710103292e-01
3.084738828307527769e-01
3.056442247704923010e-01
3.028384415095040083e-01
2.990739266670558449e-01
2.937436996996495853e-01
2.868485554354622824e-01
2.789970640743560937e-01
2.711734216534100739e-01
2.643618242097134918e-01
2.591708419431232868e-01
2.556012696818187879e-01
2.530461268822948862e-01
2.505228071638306298e-01
2.470487041456939925e-01
2.420168372843823912e-01
2.354280014080763483e-01
2.278907667166351625e-01
2.203893292471424958e-01
2.139078850366820383e-01
2.090550042851153367e-01
2.058314818206192776e-01
2.036303370996935258e-01
2.014689637416056944e-01
1.983647553656353313e-01
1.937107314282757731e-01
1.875076867577054607e-01
1.803641915537863571e-01
1.732644418536037345e-01
1.671926336942364255e-01
1.627573372755491410e-01
1.599593474257182679e-01
1.581916836012415006e-01
1.564717394213914481e-01
1.538169085054416907e-01
1.496202103098889236e-01
1.438824396629134472e-01
1.372121667643732834e-01
1.305935876513514560e-01
1.250108983609365676e-01
1.210726690929845306e-01
1.187796946756735222e-01
1.175249945655030409e-01
1.163259623817471389e-01
1.141999917436742340e-01
1.105401021077855178e-01
1.053470883022583210e-01
9.922952052695239999e-02
9.317159481895241624e-02
8.815750721534315604e-02
8.479582791598190561e-02
8.308735174904909038e-02
8.242509817104147485e-02
8.182646080123230636e-02
8.030883325889513757e-02
7.726523500052497051e-02
7.269646085430161997e-02
6.721108102008879759e-02
6.179329153496466304e-02
5.742728843601586919e-02
5.472164192310267211e-02
5.367714682440386659e-02
5.368682259641370524e-02
5.376806285841045918e-02
5.293826122966184544e-02
5.059043716666875024e-02
4.672538549760694299e-02
4.195167642233900429e-02
3.725350597794828411e-02
3.361507020151797975e-02
3.164493929290786156e-02
3.134390808029821618e-02
3.210499602018411502e-02
3.294559673183947851e-02
3.288310383453815072e-02
3.131053678477589003e-02
2.822869041073333696e-02
2.424613491226637607e-02
2.034706632646544194e-02
1.751568069040917303e-02
1.636054820395944215e-02
1.688246369529332672e-02
1.847444662091200437e-02
2.015389060008436137e-02
2.093818925208410994e-02
2.022036203340975974e-02
1.800120377224107698e-02
1.488928466843387338e-02
1.186880075907578713e-02
9.923948081250180339e-03
9.663296834816096498e-03
1.108764184795402001e-02
1.359000257715640633e-02
1.618777264170144850e-02
1.789834566086043882e-02
1.811474109113066916e-02
1.683775376068897406e-02
1.467595386939985619e-02
1.261353745434107797e-02
1.225133121003013983e-02
1.479089566903890596e-02
2.019756517247773067e-02
2.782889868976977724e-02
3.666682935312472191e-02
4.569329029473993137e-02
5.426584048404473754e-02
6.234981426214784850e-02
7.051832134183723400e-02
7.972009727313264515e-02
9.090387760604230760e-02
1.046427720533578548e-01
1.209021149561879810e-01
1.390394652839620215e-01
1.580367561688771072e-01
1.768759207431430946e-01
1.949145179761826441e-01
2.121178822091078775e-01
2.290591231547041140e-01
2.466869763629917778e-01
2.659501773839783034e-01
2.874218359304582249e-01
3.110672863435366420e-01
3.362440875926456796e-01
3.619341728099834676e-01
3.871194751277548529e-01
4.111575535153872973e-01
4.340137423139895367e-01
4.562611512363511923e-01
4.788485158324847779e-01
5.027245716524090247e-01
5.284624284089090018e-01
5.560274204430964984e-01
5.847771067243942023e-01
6.136934203850115122e-01
6.417582945571455033e-01
6.683292882102271903e-01
6.933717356853638103e-01
7.174587466953478154e-01
7.415390567901873897e-01
7.665614015199025966e-01
7.930988905972805592e-01
8.211168583634305129e-01
8.499728637877771442e-01
8.786488400025295187e-01
9.061267201398852666e-01
9.317640631692730713e-01
9.555262034318021680e-01
9.779862506402600131e-01
1.000092940344666559e+00
1.022795008095029212e+00
1.046665563604141980e+00
1.071669941213111654e+00
1.097165699891367918e+00
1.122134772771108846e+00
1.145559092984542504e+00
1.166796219501092802e+00
1.185811486661870306e+00
1.203178004179664251e+00
1.219844507604491257e+00
1.236759732486359065e+00
1.254496788538063790e+00
1.273021010100710892e+00
1.291689956143728502e+00
1.309485559799320908e+00
1.325389754199686632e+00
1.338760098314257130e+00
1.349561926484141638e+00
1.358368348422127392e+00
1.366128099678227237e+00
1.373789915802461348e+00
1.381926906507614072e+00
1.390504406134796200e+00
1.398879973653431419e+00
1.406035542195730459e+00
1.410953044893887620e+00
1.412990040717335916e+00
1.412111864007181472e+00
1.409374813922865011e+00
1.406239121539038184e+00
1.403695981522695480e+00
1.402360962703610214e+00
1.402241858539870378e+00
1.402738687117886629e+00
1.402875840686842235e+00
1.401677711495923573e+00
1.398544317631537304e+00
1.393483452551774304e+00
1.387110685086409445e+00
1.380417209902433662e+00
1.374394221666843885e+00
1.369657289209413431e+00
1.366214205988232511e+00
1.363464990089707785e+00
1.360434033763022743e+00
1.356145729257368204e+00
1.350000094659147720e+00
1.342004923426451724e+00
1.332775784389054197e+00
1.323303872213949850e+00
1.314580381568134060e+00
1.307220881281378810e+00
1.301233164811772758e+00
1.296017250245726560e+00
1.290597529832424151e+00
1.283998395821050797e+00
1.275619866298014271e+00
1.265469734721406558e+00
1.254163569920995647e+00
1.242692566563781575e+00
1.232047919316759055e+00
1.222845197009697626e+00
1.215092193100687057e+00
1.208188925676140224e+00
1.201159786985237732e+00
1.193029169277165291e+00
1.183197090638333338e+00
1.171671344526828751e+00
1.159067499772428622e+00
1.146376751042124331e+00
1.134590293002911920e+00
1.124323694484563818e+00
1.115584748945171123e+00
1.107773474471138941e+00
1.099914263311655871e+00
1.091031507715906512e+00
1.080525225770296860e+00
1.068403210932918235e+00
1.055281032033545507e+00
1.042149883739168059e+00
1.030000960716787262e+00
1.019449831796171990e+00
1.010504290435413788e+00
1.002564354720919537e+00
9.946544169018751713e-01
9.857988692274651799e-01
9.753977297840984440e-01
9.634587920298653962e-01
9.505976247945352453e-01
9.378054227451101399e-01
9.260733805485790171e-01
9.160170670347163036e-01
9.076442756616104335e-01
9.003550245156745069e-01
8.931737058460862411e-01
8.851247119020365650e-01
8.756080607699316953e-01
8.646315459078638410e-01
8.528107361455996571e-01
8.411368261501404042e-01
8.306010105884793493e-01
8.218188582903882544e-01
8.147981627139553318e-01
8.089389419455944585e-01
8.032655882344854614e-01
7.968024938298150506e-01
7.889496768179912189e-01
7.797149306571037330e-01
7.697138241769283518e-01
7.599375520444543453e-01
7.513773089266833072e-01
7.446486636533823367e-01
7.397594096826453081e-01
7.361095651008755514e-01
7.327235221572649948e-01
7.286256731009924659e-01
7.232160360184693992e-01
7.165024043677854504e-01
7.091003469787146019e-01
7.020010585182466789e-01
6.961957336533830532e-01
6.922999412138930442e-01
6.903214746578667516e-01
6.896603520717152769e-01
6.893409657046172256e-01
6.883877078057631937e-01
6.862005964615606191e-01
6.827874251300990460e-01
6.787637626411484604e-01
6.751208036617101227e-01
6.728497428587728590e-01
6.725661490621130945e-01
6.742778157298175978e-01
6.773271334747206218e-01
6.806577730817873206e-01
6.832594858142555516e-01
6.844976487725763503e-01
6.843454144288892982e-01
6.833837106270123085e-01
6.825690910479867979e-01
6.828581093728597340e-01
6.848316934454449223e-01
6.884629957378809451e-01
6.931173933506236118e-01
6.977846375469064499e-01
7.014544795899562146e-01
7.034922965802339334e-01
7.038712409898729705e-01
7.031722406626969013e-01
7.023518492797414803e-01
7.023666205220556735e-01
7.037974822334543967e-01
7.066175868860756770e-01
7.101923115803728814e-01
7.135114075795838673e-01
7.155646261469342795e-01
7.158386340941034209e-01
7.144462310553286732e-01
7.119958810507464042e-01
7.094716739377172621e-01
7.078576995736008959e-01
7.077624219785357829e-01
7.091865298009748519e-01
7.115229363176944766e-01
7.137889289682387561e-01
7.150017951921637804e-01
7.145544482662397057e-01
7.124475768389214592e-01
7.092896449303474071e-01
7.060647423978794190e-01
7.037569590988730361e-01
7.029747590534685120e-01
7.037188309101209960e-01
7.053820879456023096e-01
7.069818175994613263e-01
7.075353073112521374e-01
7.064354703577443439e-01
7.036829953873945387e-01
6.998863464203390894e-01
6.960296133139386443e-01
6.930968859255534076e-01
6.916966282753207462e-01
6.918295290116937002e-01
6.928885014114478658e-01
6.938908329141344478e-01
6.938538109592978786e-01
6.921703488237163082e-01
6.888411351558446638e-01
6.844746339758154274e-01
6.800549351409943544e-01
6.765661285087403165e-01
6.746166780991879053e-01
6.742072725607940464e-01
6.747308251703314497e-01
6.752046233673499875e-01
6.746459545913990885e-01
6.724477321192540158e-01
6.686106445993684755e-01
6.637431560518790574e-01
6.588293563341464099e-01
6.548533353035306259e-01
6.524235569801695167e-01
6.515407100125184536e-01
6.515977076773469268e-01
6.516118374142096936e-01
6.506003866626551835e-01
6.479562686994553289e-01
6.436801721730652792e-01
6.383805611036235117e-01
6.330415253484898974e-01
6.286471547650246405e-01
6.258059133733637758e-01
6.245184898219638958e-01
6.241777973875966001e-01
6.238011235098127605e-01
6.224057556281618053e-01
6.193846070194171105e-01
6.147383663320353797e-01
6.090754975861492060e-01
6.033800906391260099e-01
5.986362353483198895e-01
5.954523957338698770e-01
5.938292604442295675e-01
5.931597427561767777e-01
5.924611301092561622e-01
5.907507099430184816e-01
5.874213955342398874e-01
5.824738755313750849e-01
5.765166139545566670e-01
5.705337006611497230e-01
5.655092255085133468e-01
5.620516525167836841e-01
5.601616703344173276e-01
5.592321922381834343e-01
5.582805056676362065e-01
5.563238980623239627e-01
5.527552826990205226e-01
5.475753482261791483e-01
5.413925586639413146e-01
5.351910038696606753e-01
5.299547737007038739e-01
5.262923321772045027e-01
5.242043679476187101e-01
5.230837942887165415e-01
5.219478986400541975e-01
5.198139684411755557e-01
5.160749169688572113e-01
5.107314328715524265e-01
5.043919801693979021e-01
4.980406487197590049e-01
4.926615283799906098e-01
4.888630831702307500e-01
4.866460017389348525e-01
4.854031973628782914e-01
4.841519574816051108e-01
4.819095695346709007e-01
4.780689467988468722e-01
4.726307779225897288e-01
4.662035269260321746e-01
4.597712836665408531e-01
4.543181380014699733e-01
4.504525539509604548e-01
4.481752201634640609e-01
4.468790499157591634e-01
4.455813306473905278e-01
4.432993497979095254e-01
4.394260206440900873e-01
4.339620318343891392e-01
4.275158473889382749e-01
4.210715571651011402e-01
4.156132510202416031e-01
4.117493929744911463e-01
4.094806716763079169e-01
4.082000004024610718e-01
4.069246665925066453e-01
4.046719576859880707e-01
4.008347869596837199e-01
3.954138430620455225e-01
3.890175900132146203e-01
3.826301176705447782e-01
3.772355158914023621e-01
3.734422486959217968e-01
3.712510047325577878e-01
3.700546972780819344e-01
3.688706137720500489e-01
3.667160416540060086e-01
3.629838942007255209e-01
3.576748600606637907e-01
3.513974032539551873e-01
3.451356136379662987e-01
3.398735810700510007e-01
3.362197695703494915e-01
3.341748677873150331e-01
3.331317889977243318e-01
3.321078206411208766e-01
3.301202501570609238e-01
3.265619908223145740e-01
3.214337312853384199e-01
3.153439355662661092e-01
3.092766935224640079e-01
3.042160950112862139e-01
3.007706040528737579e-01
2.989409092956796798e-01
2.981199240164780773e-01
2.973249356548166578e-01
2.955732316502502899e-01
2.922577252795478531e-01
2.873791051911661620e-01
2.815458354052416956e-01
2.757420057791329926e-01
2.709517061702057528e-01
2.677834005985919030e-01
2.662377777127464817e-01
2.657077507894454182e-01
2.652106072682391957e-01
2.637636345886729683e-01
2.607597460275243861e-01
2.561996302332468778e-01
2.506917512259778102e-01
2.452201988630774709e-01
2.407690630019074796e-01
2.379468076626015671e-01
2.367541214936169369e-01
2.365839177717265485e-01
2.364534839364801355e-01
2.353801074274282368e-01
2.327567015213424795e-01
2.285839548666802057e-01
2.234703314835767285e-01
2.183999212293929459e-01
2.143568139614883128e-01
2.119494737000015838e-01
2.111785890933873255e-01
2.114370734184175815e-01
2.117422141146406700e-01
2.111112986216117093e-01
2.089372402160998565e-01
2.052207275465609548e-01
2.005702246331328154e-01
1.959698213331752537e-01
1.924036075040490568e-01
1.904800471658910366e-01
1.901998289671541498e-01
1.909558661846144922e-01
1.917654462578207986e-01
1.916458566263228025e-01
1.899900105668937689e-01
1.867985967279905679e-01
1.826800791297477078e-01
1.786185476295245600e-01
1.755980920846864912e-01
1.742271765153659002e-01
1.745064895700175756e-01
1.758289445254196948e-01
1.772118288211167736e-01
1.776724298966597393e-01
1.766036610288243547e-01
1.740062108660640205e-01
1.704885434285159096e-01
1.670347485735403925e-01
1.646289161584980343e-01
1.638795102035254247e-01
1.647872193570786847e-01
1.667449568959271655e-01
1.687700102596251805e-01
1.698796668877218807e-01
1.694668400569888655e-01
1.675322184158811734e-01
1.646842659845396961e-01
1.619070726203180044e-01
1.601847281805827139e-01
1.601256966854677777e-01
1.617306667834291223e-01
1.643925517512391521e-01
1.671286390284478229e-01
1.695600364721884801e-01
1.716614001112731769e-01
1.734003020958359287e-01
1.753520899476959105e-01
1.784677370258937745e-01
1.836982166894705892e-01
1.916188764602443362e-01
2.021972884883487809e-01
2.147932495522425489e-01
2.283909305931495215e-01
2.419745025523060700e-01
2.549037622081641308e-01
2.671462817108612442e-01
2.792774085822105068e-01
2.922481161812581774e-01
3.070093778670437423e-01
3.241365411613842396e-01
3.435971782144136566e-01
3.647510858045912574e-01
3.865824348731426996e-01
4.080753963612999136e-01
4.285897670475178889e-01
4.480931190819306686e-01
4.671607999863603977e-01
4.867437831198433429e-01
5.077930418414224878e-01
5.308839236729150368e-01
5.559840007644584192e-01
5.824530698945024065e-01
6.092753020042842582e-01
6.354348680350281331e-01
6.602915647651917963e-01
6.838129643449092354e-01
7.065744142960018737e-01
7.295268879775045345e-01
7.536213587484641430e-01
7.794331741306957939e-01
8.069299062743350293e-01
8.354713519578385039e-01
8.640416821224310429e-01
8.916250677093483512e-01
9.175813054970433091e-01
9.418779676356524577e-01
9.650904016469897817e-01
9.881695808901034273e-01
1.012066478724027663e+00
1.037356442670584356e+00
1.064007044879905495e+00
1.091378082130450844e+00
1.118453725363443230e+00
1.144218145520120355e+00
1.168031139378932215e+00
1.189860279090018125e+00
1.210280912175191181e+00
1.230244011993496978e+00
1.250700551903972668e+00
1.272225879428439121e+00
1.294787566717030325e+00
1.317745410548200713e+00
1.340083581863182660e+00
1.360786251603202102e+00
1.379213216546717913e+00
1.395332048843864747e+00
1.409718096016459032e+00
1.423322331423540810e+00
1.437095728424156560e+00
1.451613634540118936e+00
1.466843621921565033e+00
1.482145487346947066e+00
1.496503401757501184e+00
1.508901536094451545e+00
1.518699687136256804e+00
1.525865427033050503e+00
1.530974103306653289e+00
1.534976689316099652e+00
1.538824158420436738e+00
1.543091858141481643e+00
1.547747360629368130e+00
1.552150462662551078e+00
1.555653813532375196e+00
1.557638831800253865e+00
1.557508468149745084e+00
1.555273448636091294e+00
1.551552274686209598e+00
1.547339073564252709e+00
1.543627972534359793e+00
1.541037473023455284e+00
1.539578301086780288e+00
1.538653407407891249e+00
1.537290116833122555e+00
1.534515754208813032e+00
1.529733270218517127e+00
1.522953390917477057e+00
1.514794617732614146e+00
1.506251077928075777e+00
1.498316898768003114e+00
1.491610581679322367e+00
1.486142852717270646e+00
1.481316662565407949e+00
1.476159336070071104e+00
1.469698198077590057e+00
1.461336199271527470e+00
1.451084065707122894e+00
1.439560298811297434e+00
1.427759025848194918e+00
1.416674374081965171e+00
1.406924844939526631e+00
1.398521164476120848e+00
1.390866283375305379e+00
1.382987526483415719e+00
1.373912218646785810e+00
1.363043310548976317e+00
1.350391528245226125e+00
1.336575373162456781e+00
1.322588972564814780e+00
1.309426453716444394e+00
1.297706318044269169e+00
1.287439291603529101e+00
1.278028325077778860e+00
1.268500743313357715e+00
1.257883871156600497e+00
1.245580659291063652e+00
1.231601833771986954e+00
1.216565896026294613e+00
1.201466973318133347e+00
1.187299192911643209e+00
1.174681056233749965e+00
1.163623289339694056e+00
1.153528842913032371e+00
1.143425041800100628e+00
1.132339210847232547e+00
1.119674300737987904e+00
1.105441037527608028e+00
1.090257922643012689e+00
1.075119083348347937e+00
1.061018646907759821e+00
1.048575114748170112e+00
1.037799212924817027e+00
1.028093892121264119e+00
1.018486477183840888e+00
1.008004292958882830e+00
9.960502901299513878e-01
9.826351947522870001e-01
9.683775082528068845e-01
9.542713578956609766e-01
9.413108709449939937e-01
9.301145488277271500e-01
9.206931175991019956e-01
9.124495279426719785e-01
9.044111047047778129e-01
8.956051727317519973e-01
8.854346827071530868e-01
8.739103606862206330e-01
8.616507080958807352e-01
8.496498522002736697e-01
8.389019202635462635e-01
8.300254137126221732e-01
8.230310586027411723e-01
8.173218056174579305e-01
8.119249796031139388e-01
8.058679054060384761e-01
7.985535337097929842e-01
7.899925905696155715e-01
7.808035774124305606e-01
7.719806215023825580e-01
7.645178501036169472e-01
7.590337646430554974e-01
7.555390911759385375e-01
7.534367803858259549e-01
7.517541571190470284e-01
7.495185462219425832e-01
7.461328983780692869e-01
7.416079396426689119e-01
7.365621714426585642e-01
7.319897210421912881e-01
7.288847157054060277e-01
7.278656568592269949e-01
7.289432705588931860e-01
7.313288913769789845e-01
7.338693242492231317e-01
7.356085383225644536e-01
7.359661285811548437e-01
7.349694653808355183e-01
7.332536944491205855e-01
7.318295873507585370e-01
7.317079156504905368e-01
7.335238250758356893e-01
7.373046859826317689e-01
7.424700933550353321e-01
7.480640163399804310e-01
7.531304240843943454e-01
7.570889115724384055e-01
7.599668491599474995e-01
7.623993825744452835e-01
7.653972833806681475e-01
7.699713231433661376e-01
7.767566475900540279e-01
7.857806270765713696e-01
7.964628565870717214e-01
8.078473052684933542e-01
6.501361244558694352e-01
6.500759712681766223e-01
6.484248428824235244e-01
6.457905151201032146e-01
6.431563896399243863e-01
6.415058681006079455e-01
6.414467263236428574e-01
6.429789647588383117e-01
6.454948084843248335e-01
6.480108567410003406e-01
6.495437087697757406e-01
6.494855896487750080e-01
6.478364998278097753e-01
6.452042151283678972e-01
6.425721372091701689e-01
6.409236677289251727e-01
6.408665825091279800e-01
6.424008819995866704e-01
6.449187912784288823e-01
6.474369095865574186e-01
6.489718361648810774e-01
6.489157960915232781e-01
6.472687898162955422e-01
6.446385931606886111e-01
6.420086077834155081e-01
6.403622353431963621e-01
6.403072516615168075e-01
6.418436571881881436e-01
