-1.031648536101556768e-01
-8.721835812537753752e-02
-7.144732687227749179e-02
-5.597688382411646069e-02
-4.090653615594121162e-02
-2.630053254487579178e-02
-1.218167281785069618e-02
1.470825098420241398e-03
1.471919212741701344e-02
2.766091769054209240e-02
4.041910800741209397e-02
5.313033684545798163e-02
6.593117797211053843e-02
7.894473760698651754e-02
9.226850517148833808e-02
1.059647115890959279e-01
1.200541389330955361e-01
1.345139873765567318e-01
1.492800082423553221e-01
1.642526943554445951e-01
1.793069217425636297e-01
1.943040988826374438e-01
2.091056342545908608e-01
2.235864038851629321e-01
2.376469005993071537e-01
2.512228757198990414e-01
2.642915294200084975e-01
2.768736437729214517e-01
2.890314497021181372e-01
3.008624366290005292e-01
3.124897107731859358e-01
3.240498459021047273e-01
3.356794157831881065e-01
3.475015266360524935e-01
3.596136678821006405e-01
3.720780704448122256e-01
3.849155163974734561e-01
3.981032059131541234e-01
4.115768903147298263e-01
4.252370624271540334e-01
4.389585982771657124e-01
4.526029063436899369e-01
4.660313951056513915e-01
4.791189405897894882e-01
4.917660356210571404e-01
5.039084315223305577e-01
5.155233284666788096e-01
5.266315085273887142e-01
5.372952026279399496e-01
5.476119001897346017e-01
5.577047074323900899e-01
5.677101981233368955e-01
5.777649460300054995e-01
5.879920573720133214e-01
5.984890215707623362e-01
6.093180695497325550e-01
6.204999833822104627e-01
6.320119632412651844e-01
6.437897604497728743e-01
6.557338678326867232e-01
6.677191614167460321e-01
6.796070496808752637e-01
6.912589411039996579e-01
7.025497117128581825e-01
7.133798543324042507e-01
7.236851202855139054e-01
7.334427097452560496e-01
7.426734047849176124e-01
7.514394363279779387e-01
7.598382937958400030e-01
7.679930834081202251e-01
7.760403789322491974e-01
7.841167541356581783e-01
7.923453152379641429e-01
8.008235516605689552e-01
8.096136943269524044e-01
8.187365253104016416e-01
8.281692447839855697e-01
8.378476040705800099e-01
8.476720959951382639e-01
8.575175965843995218e-01
8.672455143172889125e-01
8.767172576727311206e-01
8.858077026774650031e-01
8.944173421564441950e-01
9.024819274325447394e-01
9.099786586788356502e-01
9.169283179686034124e-01
9.233931362253275932e-01
9.294706028704114997e-01
9.352838241234715522e-01
9.409693737519380097e-01
9.466638255232420196e-01
9.524902856570005572e-01
9.585462435746160414e-01
9.648939301995680395e-01
9.715541276051430364e-01
9.785040359644106012e-01
9.856794066002465549e-01
9.929807323376039774e-01
1.000282889203222503e+00
1.007447285676026372e+00
1.014335330234940713e+00
1.020821898906705272e+00
1.026807484516272240e+00
1.032227838386518215e+00
1.037060160690512545e+00
1.041325233501541714e+00
1.045085287743084956e+00
1.048437812836545024e+00
1.051505915001539337e+00
1.054426168005498043e+00
1.057335145615851957e+00
1.060355954052218275e+00
1.063586082735998639e+00
1.067087762590674060e+00
1.070881775689529691e+00
1.074945322205635767e+00
1.079214153461867554e+00
1.083588762283179463e+00
1.087944024696309686e+00
1.092141349180183241e+00
1.096042144213724701e+00
1.099521285823674033e+00
1.102479266834983873e+00
1.104851838570530154e+00
1.106616201203382666e+00
1.107793136806827672e+00
1.108444876304344850e+00
1.108668909117336732e+00
1.108588341465419846e+00
1.108339747116025009e+00
1.108059699836583700e+00
1.107871305846712451e+00
1.107872054567812903e+00
1.108124176923365845e+00
1.108648454986657095e+00
1.109422088930756667e+00
1.110380830078540049e+00
1.111425171254960320e+00
1.112429988486756560e+00
1.113301148814228370e+00
1.113945871940987153e+00
1.114241062888744249e+00
1.114089243477422775e+00
1.113428194024870477e+00
1.112237143699127184e+00
1.110538903568450531e+00
1.108397733551291342e+00
1.105913152064023075e+00
1.103210294321233631e+00
1.100427763085324306e+00
1.097704161118696842e+00
1.095164623635939583e+00
1.092908669053425541e+00
1.091000557289605988e+00
1.089463099412737446e+00
1.088275524590861076e+00
1.087375613141823294e+00
1.086665886885549215e+00
1.086023250843747734e+00
1.085311142490315683e+00
1.084392999299148119e+00
1.083145726291955713e+00
1.081471845288662692e+00
1.079309136607115249e+00
1.076636829415354990e+00
1.073477734781638215e+00
1.069896112624416640e+00
1.065991481360062609e+00
1.061888976203164692e+00
1.057727199916124405e+00
1.053644755261343269e+00
1.049766777453410072e+00
1.046192784908696938e+00
1.042987037545655360e+00
1.040172346432542749e+00
1.037727940737399157e+00
1.035591600778071886e+00
1.033665848374484719e+00
1.031827588548348329e+00
1.029940258773557771e+00
1.027867296524009877e+00
1.025485606821414208e+00
1.022697711485694994e+00
1.019441390834698868e+00
1.015695874036467217e+00
1.011483972159256339e+00
1.006869945121517507e+00
1.001953311339623953e+00
9.968592060281636913e-01
9.917262319495383505e-01
9.866929918661496712e-01
9.818846209925856661e-01
9.774006377452195693e-01
9.733053020425020962e-01
9.696214249526907691e-01
9.663282356438260834e-01
9.633635144337546752e-01
9.606297831424009948e-01
9.580039467914750473e-01
9.553494428548724438e-01
9.525297088064895723e-01
9.494216496680362161e-01
9.459277872594369363e-01
9.419859018985381471e-01
9.375752227533804550e-01
9.327185608922210491e-01
9.274801762335111999e-01
9.219595871936240306e-01
9.162819289871473316e-01
9.105858043764827325e-01
9.050098161240321959e-01
8.996790994443836231e-01
8.946931727539100265e-01
8.901162959710625655e-01
8.859712801640985402e-01
8.822373545010584461e-01
8.788522992997890304e-01
8.757186363802144102e-01
8.727132707640447018e-01
8.696996399251760712e-01
8.665411813375044625e-01
8.631148000227393258e-01
8.593230178008053333e-01
8.551036149895494543e-01
8.504358207570118511e-01
8.453424461714501570e-01
8.398877511513149763e-01
8.341712541129799874e-01
8.283180902710324256e-01
8.224668623878744755e-01
8.167561732259080998e-01
8.113111579997206446e-01
8.062313351256857885e-01
8.015809645222539137e-01
7.973828572576833196e-01
7.936162425000132803e-01
7.902189005670914312e-01
7.870933532788420006e-01
7.841165056569746605e-01
7.811517951753857991e-01
7.780626593079708053e-01
7.747260030764397953e-01
7.710443483007172194e-01
7.669554752986501578e-01
7.624386132382786618e-01
7.575165731878601427e-01
7.522536150658459819e-01
7.467492572886084146e-01
7.411286350707362303e-01
7.355303511746309475e-01
7.300930083626940847e-01
7.249417418495138765e-01
7.201760700514632241e-01
7.158602528869932868e-01
7.120171014243614760e-01
7.086258448316078429e-01
7.056242634265799119e-01
7.029148790292009119e-01
7.003745966611818474e-01
6.978668537964181073e-01
6.952550879088058577e-01
6.924162040200549928e-01
6.892527239500898517e-01
6.857024280167571817e-01
6.817445453880975892e-01
6.774018871323683744e-01
6.727387131680202526e-01
6.678545419114267911e-01
6.628745085771756695e-01
6.579372159276686283e-01
6.531812667253075189e-01
6.487317961846799097e-01
6.446883227221597013e-01
6.411151062561973868e-01
6.380349578550502665e-01
6.354271066867588358e-01
6.332293330691700639e-01
6.313441588222079570e-01
6.296484889675828533e-01
6.280057609791904749e-01
6.262794123309266547e-01
6.243463480445016200e-01
6.221090899398395990e-01
6.195054183347875609e-01
6.165145623973855571e-01
6.131593331958913318e-01
6.095039906487554893e-01
6.056480531723517080e-01
6.017166559812674453e-01
5.978484018379044418e-01
5.941818935046651040e-01
5.908422661961365563e-01
5.879290383286922550e-01
5.855064698207832485e-01
5.835973717406668371e-01
5.821809732563834050e-01
5.811950546857796995e-01
5.805421378487800599e-01
5.800991277670947133e-01
5.797294619146193817e-01
5.792965777652500092e-01
5.786773803406968231e-01
5.777743914608837184e-01
5.765253914436577753e-01
5.749096094570597115e-01
5.729498565693461609e-01
5.707103926989685050e-01
5.682907362623003111e-01
5.658160224739288147e-01
5.634248540962557561e-01
5.612558338916836531e-01
5.594340970747999631e-01
5.580591620619774762e-01
5.571952887716676850e-01
5.568652882721276676e-01
5.570483897313981414e-01
5.576823734673255206e-01
5.586697612998343665e-01
5.598874582506346842e-01
5.611795607929879193e-01
5.623876851374535191e-01
5.633850159116881029e-01
5.640703545415630682e-01
5.643777609508719983e-01
5.642827439136018919e-01
5.638043941039572182e-01
5.630032510463354178e-01
5.619751127630570053e-01
5.608413940746559412e-01
5.597369773494813572e-01
5.587967449558816080e-01
5.581421117143917643e-01
5.578688756473314525e-01
5.580375762790982241e-01
5.586673042838967707e-01
5.597335684357142016e-01
5.611704286583437673e-01
5.628766863776569762e-01
5.647255262213105587e-01
5.665766652691471839e-01
5.682898206010096320e-01
5.697381768445547445e-01
5.708205354256538078e-01
5.714709562680999611e-01
5.716649481458809801e-01
5.714216017332006681e-01
5.708014565544567986e-01
5.699003106319695533e-01
5.688395787862738917e-01
5.677541433857178355e-01
5.667788867986502943e-01
5.660352238456055618e-01
5.656189525489041525e-01
5.655906124329437290e-01
5.659692941719280945e-01
5.667305065398449138e-01
5.678083094604876591e-01
5.691015043597275058e-01
5.704832758652210734e-01
5.718133410568113639e-01
5.729712444534371674e-01
5.738518434559809478e-01
5.743567074915071347e-01
5.744226644850027874e-01
5.740279912116480476e-01
5.731945463468411939e-01
5.719856374161729207e-01
5.704998304431566636e-01
5.688613082495207474e-01
5.672077212048068917e-01
5.656767196785573715e-01
5.643924864924999563e-01
5.634535876701484147e-01
5.629233307370933304e-01
5.628235743687327597e-01
5.631325953402471773e-01
5.637872215766237538e-01
5.646890225049265855e-01
5.657139507540063228e-01
5.667244914048988891e-01
5.675831295386405406e-01
5.681658177840812618e-01
5.683741255682857041e-01
5.681448808162411490e-01
5.674563603031278491e-01
5.663304227043433059e-01
5.648303755454791020e-01
5.630547848500484509e-01
5.611278334397792333e-01
5.591871716842137241e-01
5.573704499528935319e-01
5.558018510675469814e-01
5.545799410516878414e-01
5.537680274309066952e-01
5.533879688806012664e-01
5.534180421759521407e-01
5.537950752419464884e-01
5.544206375056487390e-01
5.551706815959092101e-01
5.559076925937637137e-01
5.564941555802488393e-01
5.568060231842145713e-01
5.567448648327252281e-01
5.562475084507683132e-01
5.552922308135238572e-01
5.539008905963900276e-01
5.521367953249574079e-01
5.500985110227398778e-01
5.479102205114652069e-01
5.457095741606757811e-01
5.436342223399130980e-01
5.418083478709054823e-01
5.403305167771661477e-01
5.392640365842865657e-01
5.386307659676640158e-01
5.384089817024794167e-01
5.385355117137193837e-01
5.389119254284485683e-01
5.394141754755176210e-01
5.399047469359623541e-01
5.402461248908185798e-01
5.403142619689367265e-01
5.400107275973816678e-01
5.392723497011401301e-01
5.380774050553928101e-01
5.364477523355369870e-01
5.344466990671641327e-01
5.321728112737875716e-01
5.297502717771354064e-01
5.273167309467496899e-01
5.250098391521722530e-01
5.229537792151309761e-01
5.212471171591397390e-01
5.199531605097894582e-01
5.190937679424778572e-01
5.186472162323850776e-01
5.185503333044987340e-01
5.187046885858830336e-01
5.189862347053881830e-01
5.192574567440505495e-01
5.193808397829059453e-01
5.192323364508046879e-01
5.187135161748113177e-01
5.177612068799130052e-01
5.163536853412902250e-01
5.145128102343407006e-01
5.123018890846552376e-01
5.098194879157476045e-01
5.071897895493455710e-01
5.045504443549913010e-01
5.020391027022269581e-01
4.997799474127801456e-01
4.978715445101646875e-01
4.963772015199716114e-01
4.953187771175984744e-01
4.946745480782258064e-01
4.943813423268407781e-01
4.943407292905077632e-01
4.944286615980771904e-01
4.945076243305848163e-01
4.944401025690671747e-01
4.941020489423742501e-01
4.933950328775706384e-01
4.922558822996433991e-01
4.906628739837731734e-01
4.886378666053573516e-01
4.862441676899872389e-01
4.835803432611761044e-01
4.807705761406521616e-01
4.779525166979572970e-01
4.752638153026336743e-01
4.728286547764090630e-01
4.707456011427972875e-01
4.690779619273892642e-01
4.678475958055824391e-01
4.670327795525576198e-01
4.665703410933017548e-01
4.663618498548791069e-01
4.662832584661404378e-01
4.661970520081215041e-01
4.659657155618586732e-01
4.654652017562017630e-01
4.645970800182157578e-01
4.632981782728874398e-01
4.615467732953973390e-01
4.593647237611432899e-01
4.568153371957159870e-01
4.539971796226294765e-01
4.510344338636113060e-01
4.480647502882038613e-01
4.452257792659489732e-01
4.426417036185744114e-01
4.404110893695938889e-01
4.385972440445986553e-01
4.372220263189858791e-01
4.362637129679367010e-01
4.356591319164376253e-01
4.353098525915536365e-01
4.350918276221346082e-01
4.348675420892168519e-01
4.344994810738365687e-01
4.338635972048435763e-01
4.328614599093028592e-01
4.314298971122010884e-01
4.295471855887191825e-01
4.272351840142546431e-01
4.245571999143983311e-01
4.216117993126640151e-01
4.185231650307796869e-01
4.154289474382870662e-01
4.124667969047285943e-01
4.097608962518318743e-01
4.074098115031105638e-01
4.054768501841558570e-01
4.039838709703652553e-01
4.029091506369193998e-01
4.021895171088051835e-01
4.017265398130874243e-01
4.013961713786158847e-01
4.010608968864270429e-01
4.005832014175570444e-01
3.998390376008557623e-01
3.987299748633881813e-01
3.971928411301410278e-01
3.952059131762949984e-01
3.927910496772476501e-01
3.900115581585899549e-01
3.869660046438359036e-01
3.837785719547129881e-01
3.805869104607631503e-01
3.775286705315288871e-01
3.747280349887378570e-01
3.722835698559036066e-01
3.702585826586174966e-01
3.686749320722765844e-01
3.675108948720620106e-01
3.667032989829603906e-01
3.661537138320364315e-01
3.657380920481403397e-01
3.653189187123082049e-01
3.647586789055763945e-01
3.639333252567948374e-01
3.627444271930281294e-01
3.611288126392632747e-01
3.590647583706810253e-01
3.565741230626787717e-01
3.537202142408476524e-01
3.506015979287012141e-01
3.473424569479676149e-01
3.440804416681885192e-01
3.409532024589064791e-01
3.380849221418487649e-01
3.355741667405294781e-01
3.334842437805394799e-01
3.318370119372762717e-01
3.306107479859204945e-01
3.297422798514593745e-01
3.291331769609572300e-01
3.286593919432644895e-01
3.281834098794170207e-01
3.275677158504510800e-01
3.266882624852168182e-01
3.254466192107788869e-01
3.237796139521240679e-01
3.216655234844332245e-01
3.191262064831040246e-01
3.162249704737272182e-01
3.130603814798165185e-01
3.097566223231000837e-01
3.064513433731195224e-01
3.032821949994171651e-01
3.003733600237207813e-01
2.978234044695441396e-01
2.956956358624781567e-01
2.940119128779204449e-01
2.927505122910515900e-01
2.918482620268585959e-01
2.912067315124060585e-01
2.907018733765442953e-01
2.901961727003091740e-01
2.895521145647370065e-01
2.886456515986778881e-01
2.873783532291965814e-01
2.856870473812797573e-01
2.835500108301085009e-01
2.809891022510799252e-01
2.780676291697853353e-01
2.748841576097381112e-01
2.715628703926665222e-01
2.682414178881123989e-01
2.650574504656175723e-01
2.621351509469103114e-01
2.595730853555040518e-01
2.574345612169899877e-01
2.557414372067654540e-01
2.544719901000112583e-01
2.535630478217144046e-01
2.529161797989392113e-01
2.524073386605361624e-01
2.518990094875413477e-01
2.512536773609906904e-01
2.503472949097346745e-01
2.490814315608376461e-01
2.473929152392866648e-01
2.452600227202625105e-01
2.427046126791624903e-01
2.397899926415777982e-01
2.366147286310220088e-01
2.333030034692230303e-01
2.299924675257229434e-01
2.268207711700637452e-01
2.239120972239734553e-01
2.213650117109654536e-01
2.192428221566309898e-01
2.175673872363675931e-01
2.163169837253557937e-01
2.154284395485826786e-01
2.148033241331127607e-01
2.143175901077965517e-01
2.138337225536696418e-01
2.132142065517683149e-01
2.123349947309432495e-01
2.110976565182582920e-01
2.094390198387010016e-01
2.073373614674517695e-01
2.048145400799079585e-01
2.019338632016610124e-01
1.987938968562243391e-01
1.955188238653260691e-01
1.922462945985078386e-01
1.891139594253119782e-01
1.862460011674663407e-01
1.837409858484845282e-01
1.816622209939575128e-01
1.800315652792829624e-01
1.788272954796413516e-01
1.779862395200200731e-01
1.774099668274832786e-01
1.769744300308812301e-01
1.765421142112503505e-01
1.759755044496262855e-01
1.751505533748596577e-01
1.739688304140148134e-01
1.723671634920788398e-01
1.703238293842322948e-01
1.678606867658728186e-01
1.650410431625914387e-01
1.619634645979018128e-01
1.587521338935316551e-01
1.555447014190233790e-01
1.524788175439185656e-01
1.496786650899454008e-01
1.472428100806174311e-01
1.452345600415258231e-01
1.436757736480679670e-01
1.425447276754245596e-01
1.417782500485826602e-01
1.412779101946067262e-01
1.409196607423469361e-01
1.405659867728396295e-01
1.400793733671205354e-01
1.393357731540404154e-01
1.382367555606633658e-01
1.367191485119766126e-01
1.347612287831606026e-01
1.323848550496131704e-01
1.296533348369251493e-01
1.266652341686102801e-01
1.235447358663962214e-01
1.204294902998254008e-01
1.174571478384395934e-01
1.147518913039668464e-01
1.124122867199205678e-01
1.105016416118921874e-01
1.090418146552788181e-01
1.080110826252612816e-01
1.073462734468265817e-01
1.069489565470392312e-01
1.066950845547496723e-01
1.064471425509937730e-01
1.060676156168077061e-01
1.054324563810416920e-01
1.044432342707603129e-01
1.030367772109505864e-01
1.011913619767930428e-01
9.892884724368519733e-02
9.631254053721835517e-02
9.344100788090611842e-02
9.043843209647611792e-02
8.744246355347062849e-02
8.459075262143159191e-02
8.200748212208701371e-02
7.979121807895031560e-02
7.800526801761267781e-02
7.667149061347171279e-02
7.576816264170782578e-02
7.523211202730824276e-02
7.496490819733753197e-02
7.484250378064570552e-02
7.472738385826914465e-02
7.448203351124380034e-02
7.398240536841979575e-02
7.313006885686169911e-02
7.186185190155680580e-02
7.015603127768556269e-02
6.803446566064544343e-02
6.556046257602762828e-02
6.283258804734578873e-02
5.997502489632762501e-02
5.712542349251527318e-02
5.442143420545083460e-02
5.198723985686207888e-02
4.992140647026274691e-02
4.828724157124375527e-02
4.710660383520276495e-02
4.635777003732051427e-02
4.597756810258375737e-02
4.586756745805743718e-02
4.590372073259136459e-02
4.594851300722178206e-02
4.586442936298476547e-02
4.552742242873064615e-02
4.483906163152396457e-02
4.373617489635185651e-02
4.219703899839444272e-02
4.024351261304979360e-02
3.793890326590888817e-02
3.538177698048539099e-02
3.269631657850650963e-02
3.002017242951528914e-02
2.749099490305313004e-02
2.523296682084821135e-02
2.334465420641397559e-02
2.188936458534170709e-02
2.088895663302859154e-02
2.032170712465566909e-02
2.012444398520988817e-02
2.019873664175545272e-02
2.042053772314274609e-02
2.065233231040797257e-02
2.075660548458756194e-02
2.060930987453116550e-02
2.011201490730354230e-02
1.920154850789160261e-02
1.785618745147636577e-02
1.609779041345493766e-02
1.398966491941847079e-02
1.163037699288057072e-02
9.144109455569595160e-03
6.668512677026951566e-03
4.341237026795282533e-03
2.286465326601722775e-03
6.027635999604824199e-04
-6.465606275373372153e-04
-1.439648680494694417e-03
-1.798223783730471415e-03
-1.785458012257880225e-03
-1.499781939012223607e-03
-1.065242935143673750e-03
-6.193559196154307164e-04
-2.996358113920233671e-04
-2.301299816230891609e-04
-5.092690032437677955e-04
-1.200224951267194959e-03
-2.324721050513150165e-03
-3.860898625583401248e-03
-5.745450150887435395e-03
-7.879809602911350824e-03
-1.013979415992709125e-02
-1.238775345239307227e-02
-1.448603711076697047e-02
-1.631046231332093990e-02
-1.776246303654135592e-02
-1.877873175483713020e-02
-1.933740979281092787e-02
-1.946022037528172266e-02
-1.921033557726270838e-02
-1.868618597168950415e-02
-1.801181892971150458e-02
-1.732474937029295989e-02
-1.676249221239758252e-02
-1.644909482717515567e-02
-1.648298778756146499e-02
-1.692734316856893406e-02
-1.780388419501706398e-02
-1.909075219150866906e-02
-2.072463963245250659e-02
-2.260698049433443671e-02
-2.461359195542742184e-02
-2.660682364618887491e-02
-2.844902519707710742e-02
-3.001601378636374606e-02
-3.120922339053573691e-02
-3.196534648400143480e-02
-3.226252439136356731e-02
-3.212248033744172920e-02
-3.160838639724866672e-02
-3.081867314371985328e-02
-2.987738794800485695e-02
-2.892204572906838939e-02
-2.809016140587315691e-02
-2.750578234956943535e-02
-2.726733913309306936e-02
-2.743800383145694050e-02
-2.803949966947971370e-02
-2.904996797176448431e-02
-3.040610121271999575e-02
-3.200933336883288183e-02
-3.373548161837513354e-02
-3.544689559180426441e-02
-3.700592491957876984e-02
-3.828838677997058876e-02
-3.919571514946579294e-02
-3.966460250247370867e-02
-3.967319016359682760e-02
-3.924320135765450857e-02
-3.843780815965962272e-02
-3.735544114254693571e-02
-3.612014767746749705e-02
-3.467604440262737897e-02
-3.297081465702316611e-02
-3.113385586298915084e-02
-2.926894864464583274e-02
-2.744461512819064419e-02
-2.568792858962760245e-02
-2.398238040474374305e-02
-2.227001309913305069e-02
-2.045761070046610980e-02
-1.842634043819987508e-02
-1.604390199397691050e-02
-1.317799504944018769e-02
-9.709786834045844306e-03
-5.546061375465473516e-03
-6.288611992925404598e-04
5.058322318685898496e-03
1.148841590246571856e-02
1.859289742584936678e-02
2.626798626471689435e-02
3.438428499673346767e-02
4.279892865175066036e-02
5.136905225962004606e-02
5.996525839800705138e-02
6.848376644279177694e-02
7.685605426777625260e-02
8.505504859695670050e-02
9.309725805454585612e-02
1.010406401149500227e-01
1.089784107504983834e-01
1.170294027317340946e-01
1.253259163770144846e-01
1.340002520046969792e-01
1.431712423853245819e-01
1.529321034912266286e-01
1.633407927968092421e-01
1.744138189262852967e-01
1.861241086036511116e-01
1.984031397027085086e-01
2.111471315993377063e-01
2.242266868712040340e-01
2.374989405481592042e-01
2.508210276600547073e-01
2.640635507845558450e-01
2.771227292975423917e-01
2.899300410728169464e-01
3.024584128343754674e-01
3.147243532064307181e-01
3.267858196633892098e-01
3.387360281775799176e-01
3.506938115195456507e-01
3.627914700076444454e-01
3.751613039602332278e-01
3.879221461478554733e-01
4.011672125428399349e-01
4.149544606195929575e-01
4.293003990023276373e-01
4.441779544150397108e-01
4.595186047315318878e-01
4.752185693276838041e-01
4.911484507811609279e-01
5.071653841218147774e-01
5.231265043794969261e-01
5.389024141318727867e-01
5.543893327548222727e-01
5.695187381221477052e-01
5.842635569578452648e-01
5.986402978861276036e-01
6.127069183814007891e-01
6.265566344159945178e-01
6.403082787604517101e-01
6.540941517331295696e-01
6.680465536523855219e-01
6.822843172887628205e-01
6.969006586145904958e-01
7.119535351042748372e-01
7.274594553820290521e-01
7.433913461718485438e-01
7.596806853475361887e-01
7.762236922849712339e-01
7.928909695618199249e-01
8.095396522079334467e-01
8.260268752531630954e-01
8.422232412751747832e-01
8.580249696498479794e-01
8.733635382509850054e-01
8.882118738025822635e-01
9.025864849288520730e-01
9.165453291042015005e-01
9.301816223009589102e-01
9.436141972896679997e-01
9.569753543886857505e-01
9.703973939163695883e-01
9.839991486432629886e-01
9.978738345416947597e-01
1.012079409086071413e+00
1.026632380900605490e+00
1.041505676709293615e+00
1.056630774385937110e+00
1.071903893306416444e+00
1.087195636048398084e+00
1.102363137641731328e+00
1.117263533116269469e+00
1.131767425049677867e+00
1.145771032817835211e+00
1.159205834294544823e+00
1.172044756203802773e+00
1.184304307169821602e+00
1.196042444667007043e+00
1.207352384667689460e+00
1.218352959942411218e+00
1.229176470809529409e+00
1.239955217587402014e+00
1.250808033046572731e+00
1.261828133159369036e+00
1.273073475400198440e+00
1.284560568393273927e+00
1.296262338862590902e+00
1.308110264681951351e+00
1.320000565227236189e+00
1.331803843076110105e+00
1.343377233258425285e+00
1.354577870804032802e+00
1.365276358290597791e+00
1.375368915094000499e+00
1.384787019088043802e+00
1.393503596996722882e+00
1.401535157444250723e+00
1.408939657905033949e+00
1.415810314351401811e+00
1.422265959553897119e+00
1.428438893830877188e+00
1.434461417500699776e+00
1.440452363333907693e+00
1.446504947302829747e+00
1.452677126881873670e+00
1.458985410695250451e+00
1.465402725466957046e+00
1.471860549070795887e+00
1.478255100882646111e+00
1.484456983480174186e+00
1.490323331893231629e+00
1.495711281151668848e+00
1.500491433833152088e+00
1.504560009313560709e+00
1.507848485466697364e+00
1.510329789016560120e+00
1.512020428587357745e+00
1.512978361653499970e+00
1.513296804187313160e+00
1.513094588959342568e+00
1.512504016287944841e+00
1.511657386491477517e+00
1.510673532340484959e+00
1.509645669807293089e+00
1.508775400019554125e+00
1.508227355287938387e+00
1.507981182386265662e+00
1.507975079238162541e+00
1.508111985269332100e+00
1.508269223107264079e+00
1.508310647831633711e+00
1.508100114522114676e+00
1.507514945806198048e+00
1.506458081109586455e+00
1.504867718355906492e+00
1.502723504318977499e+00
1.500048667672835734e+00
1.496907885941711758e+00
1.493401095147758095e+00
1.489653848111341716e+00
1.485805165200643652e+00
1.481994066783844932e+00
1.478346105681312972e+00
1.474961217915199407e+00
1.471904081009735465e+00
1.469197923638956516e+00
1.466822392576683454e+00
1.464715685746541984e+00
1.462780742574234738e+00
1.460894885687252343e+00
1.458921970165269144e+00
1.456725851087960377e+00
1.454183851082815560e+00
1.451198909575537987e+00
1.447709224489753810e+00
1.443694442599283034e+00
1.439177792578161696e+00
1.434223951950619913e+00
1.428932856738810653e+00
1.423430059763101108e+00
1.417854581391671642e+00
1.412345441992703954e+00
1.407028194386564568e+00
1.402002774595406454e+00
1.397333860143459283e+00
1.393044679704759758e+00
1.389114880053128109e+00
1.385482659112189596e+00
1.382050956307648404e+00
1.378697094266993384e+00
1.375284928069900214e+00
1.371678312796043242e+00
1.367754571072912206e+00
1.363416642326210626e+00
1.358602724479564650e+00
1.353292464306794063e+00
1.347509090481935123e+00
1.341317280529217948e+00
1.334816970470795505e+00
1.328133713127033877e+00
1.321406528866116092e+00
1.314774438056220740e+00
1.308362993517716344e+00
1.302272131272755207e+00
1.296566528845567223e+00
1.291269414910189095e+00
1.286360436240440608e+00
1.281777790759948132e+00
1.277424417894414077e+00
1.273177640271328848e+00
1.268901312970367457e+00
1.264459291071204472e+00
1.259728897201329412e+00
1.254613070786446238e+00
1.249050009750180434e+00
1.243019360866352230e+00
1.236544352808997660e+00
1.229689663102346620e+00
1.222555227768552966e+00
1.215266599627982780e+00
1.207962799048817093e+00
1.200782846399236714e+00
1.193852294499609723e+00
1.187271079372087534e+00
1.181103878540901375e+00
1.175373920680086615e+00
1.170060852563463483e+00
1.165102872114658128e+00
1.160402918759374291e+00
1.155838315125100824e+00
1.151272916291512738e+00
1.146570577338286157e+00
1.141608620892909043e+00
1.136289986381086026e+00
1.130552871726442810e+00
1.124376923702798736e+00
1.117785370984190951e+00
1.110842891094848905e+00
1.103649420056925567e+00
1.096330510690787907e+00
1.089025183364617622e+00
1.081872458446594409e+00
1.074997888757086129e+00
1.068501410318245304e+00
1.062447700654302274e+00
1.056859988439293074e+00
1.051717920447037491e+00
1.046959694601161894e+00
1.042488250327369803e+00
1.038180910253150291e+00
1.033901529458178592e+00
1.029513963022129719e+00
1.024895533572492967e+00
1.019949180534972299e+00
1.014613101833193198e+00
1.008866944240975672e+00
1.002733936432356421e+00
9.962787559315648966e-01
9.896013387607548450e-01
9.828272377402920146e-01
9.760954732383585464e-01
9.695450656231344722e-01
9.633015677149875389e-01
9.574649155360702713e-01
9.520997866106123420e-01
9.472294096126508967e-01
9.428334313160049440e-01
9.388500496443011878e-01
9.351822040232429245e-01
9.317072170803190057e-01
9.282889438952054428e-01
9.247912395475770264e-01
9.210914266649227189e-01
9.170924446729459278e-01
9.127324914952734680e-01
9.079912139057246812e-01
9.028918405783360468e-01
8.974990490373374596e-01
8.919127753048819995e-01
8.862585722013363032e-01
8.806754600948820677e-01
8.753024593536992137e-01
8.702651227981554882e-01
8.656633864504033049e-01
8.615619278346733356e-01
8.579839756250012828e-01
8.549091765952072652e-01
8.522757286689173206e-01
8.499865712718348565e-01
8.479190270314495015e-01
8.459369510274356019e-01
8.439041983394691693e-01
8.416980915950392772e-01
8.392215702198493332e-01
8.364128321375253750e-01
8.332515241218871882e-01
8.297608748469713635e-01
8.260055618370075736e-01
8.220855211141491203e-01
8.181263054987627514e-01
8.142669353590290537e-01
8.106464310631298353e-01
8.073903454314317329e-01
8.045986144860871603e-01
8.023359157513264561e-01
8.006254779011862110e-01
7.994469477094860999e-01
7.987385230998520491e-01
7.984031434979875774e-01
7.983181315313822024e-01
7.983473422797106034e-01
7.983546308226487920e-01
7.982173197876848425e-01
7.978383486005238279e-01
7.971559151847904534e-01
7.961496663143047270e-01
7.948428306631040163e-01
7.932558068257982153e-01
7.914421500526415132e-01
7.895242604005801024e-01
7.876380054743761239e-01
7.859192528787894982e-01
7.844904026707677502e-01
7.834482381090429604e-01
7.828542839544255783e-01
7.827286161175321944e-01
7.830477286087621502e-01
7.837466665883212613e-01
7.847252167184934901e-01
7.858575488633476880e-01
7.870043653391393113e-01
7.880263684621231501e-01
7.887977280963685001e-01
7.892182309041586574e-01
7.892229220457001038e-01
7.887882955313919586e-01
7.879344272718509234e-01
7.867228420278874479e-01
7.852503230582332794e-01
7.836392704198359427e-01
7.820255517174561355e-01
7.805450345558555547e-01
7.793201189919797267e-01
7.784475882845623973e-01
7.779889671944132390e-01
7.779643316321487312e-01
7.783501756081685485e-01
7.790815442826786175e-01
7.800582243179625674e-01
7.811543855780894718e-01
7.822307303793145650e-01
7.831479610378928591e-01
7.837802474178933165e-01
7.840273761815998999e-01
7.838243924892184245e-01
7.831477903511482319e-01
7.820176456780062457e-01
7.804954832306021384e-01
7.786780862676687676e-01
7.766878548461531029e-01
7.746742317893954288e-01
7.727878345840117902e-01
7.711528252818620199e-01
7.698677491365913950e-01
7.689958929039227842e-01
7.685590944893854193e-01
7.685356098982918382e-01
7.688622462857603868e-01
7.694405523089881127e-01
7.701464598269563977e-01
7.708424331508333394e-01
7.713909365917867023e-01
7.716679020087987562e-01
7.715748780590654388e-01
7.710486718977058729e-01
7.700675395300322634e-01
7.686533188615738421e-01
7.668692966480538109e-01
7.648140181431170026e-01
7.626116453986236943e-01
7.603998080142470029e-01
7.583161355896617106e-01
7.564847901767263183e-01
7.550043170290871020e-01
7.539380029024665975e-01
7.533076857023939255e-01
7.530916214341818460e-01
7.532266172529488157e-01
7.536142218158912165e-01
7.541303669819912070e-01
7.546375170624165518e-01
7.549981363683349045e-01
7.550881567587287568e-01
7.548091268907940465e-01
7.540978539196498964e-01
7.529325938506080673e-01
7.513351845891983460e-01
7.493689128911436015e-01
7.471323240100888885e-01
7.447495799978945952e-01
7.423583104542336164e-01
7.400961449787804014e-01
7.380872456233940060e-01
7.364301576417205952e-01
7.351881677894823719e-01
7.343831139722090118e-01
7.339932521952128308e-01
7.339553896136121747e-01
7.341710748846043133e-01
7.345162398671700732e-01
7.348533488724782181e-01
7.350448662116961795e-01
7.349667237438061163e-01
7.345204701260042990e-01
7.336429125134095175e-01
7.323123069113343098e-01
7.305504912253075744e-01
7.284207522110528465e-01
7.260216351222146258e-01
7.234773020106534114e-01
7.209253824760423202e-01
7.185035061180558014e-01
7.163358349885529108e-01
7.145209143411795916e-01
7.131220309316581574e-01
7.121610226655185061e-01
7.116161455480725095e-01
7.114242067344389575e-01
7.114867548818144538e-01
7.116797218491807131e-01
7.118655719477061661e-01
7.119067694885578002e-01
7.116792463307184402e-01
7.110845511313839129e-01
7.100594910456731190e-01
7.085823220788987076e-01
7.066748821365894662e-01
7.044004579744687078e-01
7.018575948461813763e-01
6.991704548035879707e-01
6.964766674463612750e-01
6.939138623741756273e-01
6.916062016388905276e-01
6.896522304941518078e-01
6.881152356956816707e-01
6.870170551490096811e-01
6.863359448594483769e-01
6.860087119821164370e-01
6.859369051742101320e-01
6.859964562947108435e-01
6.860498296547875574e-01
6.859594895656080382e-01
6.856013678861534455e-01
6.848770132736207161e-01
6.837232328831284178e-01
6.821182827199889775e-01
6.800840006897318490e-01
6.776836735480795681e-01
6.750158465486778558e-01
6.722046817433861010e-01
6.693878087318785308e-01
6.667028571138280402e-01
6.642739889410952392e-01
6.621997494673250717e-01
6.605434254482406287e-01
6.593268547893710307e-01
6.585282934960285939e-01
6.580845487233322189e-01
6.578971691284782874e-01
6.578420865704490694e-01
6.577817653604115522e-01
6.575786698095342775e-01
6.571087317767990710e-01
6.562734999194025365e-01
6.550097813924630197e-01
6.532958322012931696e-01
6.511534902514223289e-01
6.486460422985727003e-01
6.458720335963908932e-01
6.429556261967355191e-01
6.400344496992806942e-01
6.372461337037003126e-01
6.347148402618542073e-01
6.325391146273874332e-01
6.307822435560228591e-01
6.294660649532900498e-01
6.285688348245008772e-01
6.280273603247749081e-01
6.277431901113077473e-01
6.275922560430818864e-01
6.274370224312648681e-01
6.271399535870246789e-01
6.265769813693431445e-01
6.256496544354172018e-01
6.242947799403647524e-01
6.224906138894988894e-01
6.202589941883487334e-01
6.176632075926365983e-01
6.148017993560086492e-01
6.117989315303237197e-01
6.087922337152569252e-01
6.059193355104807166e-01
6.033043989678553709e-01
6.010459693410262760e-01
5.992073333857160788e-01
5.978103290074543441e-01
5.968332122115532767e-01
5.962127901531318885e-01
5.958506114893860062e-01
5.956226080792980104e-01
5.953912442340357769e-01
5.950189842647668481e-01
5.943817600304737159e-01
5.933811201883522068e-01
5.919538718935214439e-01
5.900782711512938539e-01
5.877761558671985576e-01
5.851108127969584238e-01
5.821807871942189516e-01
5.791102411108393078e-01
5.760368041464942745e-01
5.730981059008565248e-01
5.704183084257867797e-01
5.680959569749296501e-01
5.661943383040084488e-01
5.647352903185520745e-01
5.636970690238732873e-01
5.630164815750907659e-01
5.625950766294005589e-01
5.623087860457847142e-01
5.620200741354115515e-01
5.615914052094488351e-01
5.608987111268778358e-01
5.598435405448959346e-01
5.583627006186212549e-01
5.564344473533662239e-01
5.540806186546604062e-01
5.513645012782261157e-01
5.483846404777094063e-01
5.452651983049695561e-01
5.421438043596805700e-01
5.391580882415160092e-01
5.364322120023359286e-01
5.340647208957853831e-01
5.321189016775872416e-01
5.306165922532708468e-01
5.295360486281485146e-01
5.288140779573393679e-01
5.283522288980391224e-01
5.280264333092306028e-01
5.276991555020804636e-01
5.272328597877579126e-01
5.265034780252442204e-01
5.254125588717357687e-01
5.238969094823514583e-01
5.219347858624036052e-01
5.195480259174213300e-01
5.167999164031276127e-01
5.137890025731683963e-01
5.106394464794022925e-01
5.074888777215040836e-01
5.044749258991468865e-01
5.017217530641910894e-01
4.993279044702812475e-01
4.973566668731406737e-01
4.958298781782985998e-01
4.947257943910673417e-01
4.939812226665656891e-01
4.934977116619898574e-01
4.931511932363224493e-01
4.928041317007305078e-01
4.923189913663825745e-01
4.915717040922598646e-01
4.904638185355594815e-01
4.889321418513999373e-01
4.869549300450933815e-01
4.845540210221695454e-01
4.817927015383510203e-01
4.787695168472829721e-01
4.756086290008257889e-01
4.724476675986524210e-01
4.694242622404372067e-01
4.666625749780394794e-01
4.642611510651049600e-01
4.622832772573563509e-01
4.607507914603229393e-01
4.596419496793170412e-01
4.588935590694573352e-01
4.584071682879407028e-01
4.580587091937484701e-01
4.577106460980488456e-01
4.572254433120095940e-01
4.564790326946131516e-01
4.553729629030550674e-01
4.538440410924545199e-01
4.518705232681241024e-01
4.494742473355926582e-01
4.467185000505835002e-01
4.437018266667416833e-01
4.405483892359269293e-01
4.373958173578129105e-01
4.343817406320742425e-01
4.316303211105692594e-01
4.292401040469444040e-01
4.272743761969221010e-01
4.257549754660315822e-01
4.246601578595856075e-01
4.239267305327026336e-01
4.234562421425789314e-01
4.231246245481966040e-01
4.227943420607239711e-01
4.223278589913282421e-01
4.216011071989915204e-01
4.205156353409102987e-01
4.190082505722033113e-01
4.170572088981831516e-01
4.146843482243786072e-01
4.119529553065131577e-01
4.089615753982315804e-01
4.058343705513942634e-01
4.027089703656741571e-01
3.997230044407455996e-01
3.970006348284681463e-01
3.946404067824873518e-01
3.927056070585258074e-01
3.912180735621128003e-01
3.901560622985608684e-01
3.894563804229886350e-01
3.890205765925929260e-01
3.887245826663550119e-01
3.884308629554430459e-01
3.880018817710250145e-01
3.873135709720829101e-01
3.862674792158128922e-01
3.848004136573339173e-01
3.828906303019582458e-01
3.805599670552151648e-01
3.778717106728278763e-01
3.749244064084411576e-01
3.718422163139151193e-01
3.687627699889231003e-01
3.658236970331399940e-01
3.631491594984240789e-01
3.608377026384215203e-01
3.589526132088550758e-01
3.575157291152539218e-01
3.565053063629306518e-01
3.558581521070039444e-01
3.554758150046697929e-01
3.552342269149106335e-01
3.549958521488943974e-01
3.546231550177882386e-01
3.539920673805751483e-01
3.530041378944508423e-01
3.515961737145340549e-01
3.497464308461373794e-01
3.474767471947901032e-01
3.448504095162151506e-01
3.419659630640575210e-01
3.389475698901776024e-01
3.359328595942484563e-01
3.330594617759443654e-01
3.304515384871243855e-01
3.282076349814349592e-01
3.263910380145980672e-01
3.250235854921430523e-01
3.240835334193826744e-01
3.235076889514355014e-01
3.231976007454980815e-01
3.230292006605517408e-01
3.228649530077652985e-01
3.225673220983059641e-01
3.220122397911561740e-01
3.211012547435115883e-01
3.197711741104915517e-01
3.180002538974083803e-01
3.158103320097911393e-01
3.132646952033632526e-01
3.104618887317691089e-01
3.075260746468693185e-01
3.045948825483372757e-01
3.018059420358468192e-01
2.992834151612576710e-01
2.971258471782152188e-01
2.953965248424421097e-01
2.941172860594678529e-01
2.932663868346049307e-01
2.927806343229718555e-01
2.925615771817649535e-01
2.924851472699663835e-01
2.924138088987441320e-01
2.922100263792656860e-01
2.917497315705133154e-01
2.909344731296833464e-01
2.897010582118942912e-01
2.880277428224590763e-01
2.859363648669063784e-01
2.834902111009594550e-01
2.807878267782633608e-01
2.779533739506785950e-01
2.751244822178777749e-01
2.724387811795354053e-01
2.700204328875109860e-01
2.679679825954501826e-01
2.663447170590753643e-01
2.651724741839162625e-01
2.644295099752848044e-01
2.640526315883002240e-01
2.639433876801584589e-01
2.639777101098417789e-01
2.640180631885180040e-01
2.639269112273551765e-01
2.635801860853347889e-01
2.628794364196535560e-01
2.617614693854302121e-01
2.602045409879770177e-01
2.582304891328233709e-01
2.559026005756920852e-01
2.533194205702285484e-01
2.506051111682922605e-01
2.478973019695577262e-01
2.453336225736977572e-01
2.430382350325727692e-01
2.411096845998277061e-01
2.396112580311856866e-01
2.385647932321757758e-01
2.379485462081104841e-01
2.376993241141087954e-01
2.377186756073665364e-01
2.378825325468663654e-01
2.380533592437754919e-01
2.380936200092621802e-01
2.378792467023082002e-01
2.373117879801102670e-01
2.363280509977865873e-01
2.349062917606500323e-01
2.330683481742297503e-01
2.308775069942483327e-01
2.284323134743520278e-01
2.258569296663991977e-01
2.232889851700645412e-01
2.208661095850213973e-01
2.187124649631303208e-01
2.169265965580355615e-01
2.155717911254605990e-01
2.146698865709345538e-01
2.141991388997696311e-01
2.140963552670852588e-01
2.142630843300770138e-01
2.145752579477273048e-01
2.148953404312038962e-01
2.150857960916747746e-01
2.150225567881215716e-01
2.146071711777411128e-01
2.137764464156517996e-01
2.125086385071662254e-01
2.108255853578137329e-01
2.087905737233168857e-01
2.065021488573212383e-01
2.040844728116862905e-01
2.016751751860865749e-01
1.994118855801947643e-01
1.974187660458714411e-01
1.957943618367613270e-01
1.946019597085880126e-01
1.938633975668801745e-01
1.935569314169502675e-01
1.936193684139173310e-01
1.939522572149774415e-01
1.944315296791130909e-01
1.949196501174912943e-01
1.952790828412804824e-01
1.953857597094626197e-01
1.951412293792340880e-01
1.944822990057134549e-01
1.933872245942131474e-01
1.918778440502626748e-01
1.900174441295844618e-01
1.879045700858247014e-01
1.856633839708420886e-01
1.834315153843110724e-01
1.813465939259049364e-01
1.795327816474841243e-01
1.780886238026933299e-01
1.770774071472557276e-01
1.765209695867002715e-01
1.763975671263398326e-01
1.766440069212929787e-01
1.771618376287558139e-01
1.778269911077106635e-01
1.785019316693250979e-01
1.790491236247675477e-01
1.793444988330190892e-01
1.792896059512767981e-01
1.788212521346592143e-01
1.779176933884787926e-01
1.766007676182647090e-01
1.749337615797398882e-01
1.730152205265495791e-01
1.709693065105537535e-01
1.689336491314259725e-01
1.670458779888404632e-01
1.654301551346561983e-01
1.643710600858540871e-01
1.641146828439973004e-01
1.646780147883731837e-01
1.660344653980522223e-01
1.681159953019117359e-01
1.708193066309052210e-01
1.740154847177731723e-01
1.775621473474414680e-01
1.813169123048359588e-01
1.851508649226968617e-01
1.889607073319785890e-01
1.926784001615578501e-01
1.962773528905049913e-01
1.997745568981078024e-01
2.032284524138463777e-01
2.067327381651249407e-01
2.104067296775609941e-01
2.143832100245863514e-01
2.187949622796328542e-01
2.237613019683183102e-01
2.293759278180458605e-01
2.356972800582967098e-01
2.427423500683582314e-01
2.504845473273006884e-01
2.588558324640009012e-01
2.677529076094133376e-01
2.770468580962781036e-01
2.865953017095209110e-01
2.962558562340679713e-01
3.058996070026591685e-01
3.154232561462491646e-01
3.247587642937141417e-01
3.338795409241252510e-01
3.428025774167692830e-01
3.515863140011280530e-01
3.603244494046035085e-01
3.691362991528146509e-01
3.781546463191928775e-01
3.875122739771702518e-01
3.973284976523641654e-01
4.076970160721781200e-01
4.186762694660932094e-01
4.302832492133966680e-01
4.424913647931590921e-01
4.552325768342570522e-01
4.684035874676452105e-01
4.818754820260632843e-01
4.955058782944374851e-01
5.091523940576935248e-01
5.226861146485717313e-01
5.360037421980262673e-01
5.490372373349340362e-01
5.617600095383654679e-01
5.741890501876079078e-01
5.863827995121422276e-01
5.984349562393721511e-01
6.104648358949150699e-01
6.226052215522027700e-01
6.349888962846673701e-01
6.477351756179262621e-01
6.609377582793836137e-01
6.746550844985195194e-01
6.889041456546217690e-01
7.036583512267605700e-01
7.188496618438131591e-01
7.343747796367333658e-01
7.501047899382614625e-01
7.658973105333235498e-01
7.816099592068453950e-01
7.971138212915672705e-01
8.123055989184430059e-01
8.271172527163501709e-01
8.415221921643585290e-01
8.555374086417558699e-01
8.692213423780227322e-01
8.826676921005631726e-01
8.959957733349946940e-01
9.093383691547483050e-01
9.228282626332573457e-01
9.365847692961379867e-01
9.507015878707947287e-01
9.652371585867084436e-01
9.802084728231661437e-01
9.955889400592382588e-01
1.011310520923801581e+00
1.027269917547810829e+00
1.043338215264005164e+00
1.059373031857312464e+00
1.075231985112656385e+00
1.090786160362778423e+00
1.105932259738632517e+00
1.120602243869095238e+00
1.134769522233237238e+00
1.148451086210346306e+00
1.161705376029902759e+00
1.174626090419309987e+00
1.187332544904186715e+00
1.199957522557963063e+00
1.212633806454072261e+00
1.225480712118131921e+00
1.238591938277544768e+00
1.252025925161792674e+00
1.265799664150162096e+00
1.279886564721723907e+00
1.294218587505355345e+00
1.308692434632009904e+00
1.323179191434428636e+00
1.337536475697536309e+00
1.351621905206259244e+00
1.365306565293338048e+00
1.378487158089726661e+00
1.391095644224302097e+00
1.403105433176134786e+00
1.414533516324511186e+00
1.425438333898913834e+00
1.435913584626744344e+00
1.446078584033622549e+00
1.456066115192979016e+00
1.466008961178246084e+00
1.476026437515040257e+00
1.486212242930766703e+00
1.496624817654905515e+00
1.507281153066743373e+00
1.518154658645352040e+00
1.529177295019607641e+00
1.540245764320463895e+00
1.551231151880662296e+00
1.561991075485127833e+00
1.572383152918786609e+00
1.582278469514379005e+00
1.591573727402858740e+00
1.600200887213103496e+00
1.608133358424182813e+00
1.615388132415384703e+00
1.622023649416189262e+00
1.628133608154001433e+00
1.633837324154437276e+00
1.639267580490930243e+00
1.644557160236910009e+00
1.649825378917996410e+00
1.655165935261592614e+00
1.660637269497178714e+00
1.666256373004042279e+00
1.671996655261253739e+00
1.677790076897689442e+00
1.683533340044305326e+00
1.689097530033839778e+00
1.694340264651220229e+00
1.699119161681371226e+00
1.703305306457033597e+00
1.706795401109160837e+00
1.709521406266631960e+00
1.711456731408514287e+00
1.712618367914098272e+00
1.713064756012861789e+00
1.712889594432211560e+00
1.712212198697761867e+00
1.711165351882947050e+00
1.709992915688952841e+00
1.708929639509645604e+00
1.708075754933173540e+00
1.707496235049762667e+00
1.707214604099445143e+00
1.707210804422035100e+00
1.707423329507154364e+00
1.707755414346502132e+00
1.708084677133562268e+00
1.708275268514005685e+00
1.708191339133502629e+00
1.707710507185537852e+00
1.706736007661810772e+00
1.705206334051941219e+00
1.703101428695745989e+00
1.700444815833255685e+00
1.697301468554696324e+00
1.693771618448215444e+00
1.689981113900175913e+00
1.686069270844753332e+00
1.682175405216124409e+00
1.678425365400652458e+00
1.674919382986483463e+00
1.671722431063844549e+00
1.668858033872766544e+00
1.666306133753064689e+00
1.664005224194360366e+00
1.661858540188352995e+00
1.659743699928526217e+00
1.657524854060551611e+00
1.655066153230099202e+00
1.652245215630652408e+00
1.648965276253911982e+00
1.645164828589497752e+00
1.640823814977225625e+00
1.635965759657127094e+00
1.630655635719427732e+00
1.624993674752275741e+00
1.619105725142032215e+00
1.613131102822876084e+00
1.607209123728980282e+00
1.601465636246710122e+00
1.596000871964211365e+00
1.590879803971710915e+00
1.586125956509240043e+00
1.581719271916613767e+00
1.577598243683453694e+00
1.573666106801457909e+00
1.569800479464112275e+00
1.565865512317086150e+00
1.561725356006050003e+00
1.557257628724489473e+00
1.552365565464102426e+00
1.546987659714510688e+00
1.541103853815529723e+00
1.534737672007190135e+00
1.527954087379717718e+00
1.520853331521261786e+00
1.513561252818182545e+00
1.506217167204658036e+00
1.498960390614863414e+00
1.491916771435162214e+00
1.485186541253701309e+00
1.478834673160706714e+00
1.472884691396209922e+00
1.467316538300025952e+00
1.462068707361776854e+00
1.457044433573160935e+00
1.452121335127662505e+00
1.447163562670952253e+00
1.442035266848701092e+00
1.436614065854393107e+00
1.430803194679727275e+00
1.424541146814324533e+00
1.417807864598001011e+00
1.410626872270787757e+00
1.403063142922910345e+00
1.395216908142516532e+00
1.387214016315969189e+00
1.379193783377443916e+00
1.371295525261117865e+00
1.363645090353352574e+00
1.356342710242296246e+00
1.349453358018174676e+00
1.343000557921019578e+00
1.336964252290645971e+00
1.331282934616674352e+00
1.325859839890804581e+00
1.320572586306521412e+00
1.315285324509494203e+00
1.309862205145394531e+00
1.304180846407706484e+00
1.298144483288129036e+00
1.291691609276283126e+00
1.284802166711984439e+00
1.277499679835264468e+00
1.269849121736348563e+00
1.261950724003385149e+00
1.253930335022736209e+00
1.245927270728578007e+00
1.238080847055086586e+00
1.230516912388625483e+00
1.223335698317340681e+00
1.216602177931459750e+00
1.210339875471012627e+00
1.204528733275815888e+00
1.199107244835489805e+00
1.193978645141734019e+00
1.189020552388032392e+00
1.184097117220055839e+00
1.179072490283475272e+00
1.173824289771773888e+00
1.168255750676651772e+00
1.162305366487729863e+00
1.155953079544823625e+00
1.149222414087963884e+00
1.142178343207377100e+00
1.134921098491211033e+00
1.127576528325827443e+00
1.120283948645403260e+00
1.113182675384114084e+00
1.106398556928323229e+00
1.100031824866178232e+00
1.094147452287904221e+00
1.088768963433533354e+00
1.083876300642880652e+00
1.079407957405567053e+00
1.075267168713291754e+00
1.071331552759539507e+00
1.067465260189980558e+00
1.063532441650285376e+00
1.059410715333938935e+00
1.055003316232639321e+00
1.050248737836008806e+00
1.045126922483861520e+00
1.039661394416229845e+00
1.033917126723339130e+00
1.027994350993337358e+00
1.022018915612586731e+00
1.016130136515263294e+00
1.010467329635544420e+00
1.005156343359791205e+00
1.000297409276152294e+00
9.959555004748527063e-01
9.921541411959249324e-01
9.888732737791833260e-01
9.860513917142493812e-01
9.835917299928222945e-01
9.813719068083863739e-01
9.792560728066129760e-01
9.771083786331707932e-01
9.748064424815453544e-01
9.722534993434356343e-01
9.693880427084632379e-01
9.661900149164424079e-01
9.626829402074057462e-01
9.589317916715784929e-01
9.550368008971079625e-01
9.511238162703575805e-01
9.473321537255021685e-01
9.438011291967201011e-01
9.406565910703722500e-01
9.379987709346067071e-01
9.358926418796488234e-01
9.343617281455314227e-01
9.333859720720680819e-01
9.329038671488808498e-01
9.328186483676694785e-01
9.330079339219172763e-01
9.333358744572950449e-01
9.336666206194734752e-01
9.338777906019367636e-01
9.338726193963842181e-01
9.335896004924374436e-01
9.330086762299102388e-01
9.321533708488354275e-01
9.310886574394388049e-01
9.299147675898669085e-01
9.287313074236743793e-01
9.276469099813302588e-01
9.267942302506649854e-01
9.262924556716948254e-01
9.262351568862213780e-01
9.266806460381241672e-01
9.276457864210889692e-01
9.291038594285849772e-01
9.309866976038867481e-01
9.331908749923473190e-01
9.355873488411055039e-01
9.380336088494857227e-01
9.403871447168116182e-01
9.425189136902223375e-01
9.443254898150705845e-01
9.457387056346314713e-01
9.467318425423740802e-01
9.473217638319839651e-01
9.475667816473404281e-01
9.475604666302455126e-01
9.474220062207154847e-01
9.472840554065805607e-01
9.472792691756709571e-01
9.475268349680023849e-01
9.481203234253778867e-01
9.491180466916754321e-01
9.505368680605819076e-01
9.523500689255656182e-01
9.544894818299017869e-01
9.568516808189433398e-01
9.593076231398288689e-01
9.617147984918826831e-01
9.639306965744295352e-01
9.658262746346069072e-01
9.672981067177682801e-01
9.682780253671888770e-01
9.687393119763376692e-01
9.686988298389002106e-01
9.682148910987560253e-01
9.673810663977069346e-01
9.663165431757686497e-01
9.651539764207720529e-01
9.640679831124462362e-01
9.632230585306118531e-01
9.627177920889317120e-01
9.626155147031473236e-01
9.629381084388047851e-01
9.636638734612340551e-01
9.647296610855718990e-01
9.660370641290311200e-01
9.674620586106121856e-01
9.688671530015002809e-01
9.701148557728813682e-01
9.710811429437538056e-01
9.716676073313319506e-01
9.718111002507523466e-01
9.714899218673442860e-01
9.707259542466558644e-01
9.695825283044263720e-01
9.681582334543191726e-01
9.665772759082106313e-01
9.649773294257932843e-01
9.634960677667580020e-01
9.622576971429822601e-01
9.613608069681282009e-01
9.608687281579367800e-01
9.608033427779546498e-01
9.611429509935117688e-01
9.618244041197449024e-01
9.627492949738669648e-01
9.637935995748776463e-01
9.648198263939630204e-01
9.656904839023086051e-01
9.662815481189130917e-01
9.664946118609906156e-01
9.662665264436778312e-01
9.655755920323041419e-01
9.644436906924168662e-01
9.629341533397564046e-01
9.611455693879851214e-01
9.592021450489809364e-01
9.572415540824340541e-01
9.554014702480372323e-01
9.538060997576668365e-01
9.525540320249860082e-01
9.517085979657348149e-01
9.512916796454604640e-01
9.512815772294925809e-01
9.516151420329675981e-01
9.521939668731003170e-01
9.528940277688885407e-01
9.535778331915186756e-01
9.541078916121751297e-01
9.543601790498592585e-01
9.542362883217835323e-01
9.536730707430847165e-01
9.526488264790927696e-01
9.511854375953537888e-01
9.493462350076092848e-01
9.472298081295220662e-01
9.449603631729684983e-01
9.426755738976400067e-01
9.405131140632285724e-01
9.385971898816111159e-01
9.370263907664504455e-01
9.358640476334870728e-01
9.351320425482677612e-01
9.348086756761222471e-01
9.348307983321870740e-01
9.351000033336765993e-01
9.354922666995894032e-01
9.358700969011111148e-01
9.360960024094275855e-01
9.360459592435381726e-01
9.356215602206561233e-01
9.347596566559185360e-01
9.334385487146550364e-01
9.316801184624123877e-01
9.295476968149312125e-01
9.271398731858743192e-01
9.245808537871194055e-01
9.220083123783563428e-01
9.195599227192776670e-01
9.173598910217604097e-01
9.155068066994672682e-01
9.140640006681386431e-01
9.130533549933218529e-01
9.124531698403459679e-01
9.122002965243477535e-01
9.121963278625415672e-01
9.123172398739258782e-01
9.124255410296869817e-01
9.123837398010097299e-01
9.120678122068943683e-01
9.113793510645535889e-01
9.102552076891246013e-01
9.086736822459371421e-01
9.066566568005376414e-01
9.042674622686673880e-01
9.016046880639883021e-01
8.987925403983783035e-01
8.959686930315279296e-01
8.932708197231296054e-01
8.908231266850601404e-01
8.887242033309816769e-01
8.870373805766355035e-01
8.857845404875680506e-01
8.849439832291092767e-01
8.844525601163953921e-01
8.842118639666410873e-01
8.840978707988440544e-01
8.839730890841912547e-01
8.837000272938682066e-01
8.831546614468737122e-01
8.822385843604215738e-01
8.808886473496481129e-01
8.790831505798841761e-01
8.768439761166749724e-01
8.742344548757626788e-01
8.713531762708091044e-01
8.683243465136916139e-01
8.652856393641015220e-01
8.623747285817303654e-01
8.597158203784552866e-01
8.574075041679394271e-01
8.555131108659225214e-01
8.540545225379519989e-01
8.530100393493572630e-01
8.523165126152750792e-01
8.518755351529195829e-01
8.515630829812893543e-01
8.512416645715698005e-01
8.507737883949475499e-01
8.500354304704216268e-01
8.489281836152052785e-01
8.473888991444350482e-01
8.453958772234412278e-01
8.429709999177703583e-01
8.401775981431626183e-01
8.371142613132822596e-01
8.339051956400047594e-01
8.306880748830215433e-01
8.276005728020251473e-01
8.247668956088921588e-01
8.222856327172856084e-01
8.202201150429453413e-01
8.185922246514188982e-01
8.173802617080355715e-01
8.165210775279322375e-01
8.159162649283231428e-01
8.154417999282063123e-01
8.149601909987682635e-01
8.143339466111941816e-01
8.134390427844838678e-01
8.121770723358500144e-01
8.104848865804304969e-01
8.083407856835542749e-01
8.057666517107682225e-01
8.028258155778135174e-01
7.996168666983521911e-01
7.962640112842624962e-01
7.929049230952338601e-01
7.896772758909593737e-01
7.867052758833155135e-01
7.840875124859655321e-01
7.818873166146494968e-01
7.801265703349145042e-01
7.787835738120902906e-01
7.777951783613125114e-01
7.770629767997960791e-01
7.764629451465410170e-01
7.758575918727308451e-01
7.751094254495524138e-01
7.740944218960045253e-01
7.727141740293017591e-01
7.709055331645796594e-01
7.686467994671686288e-01
7.659598550026152086e-01
7.629080306866597994e-01
7.595899159329656536e-01
7.561297169534100249e-01
7.526651075076843389e-01
7.493337613554784671e-01
7.462598847086712173e-01
7.435420669809249539e-01
7.412436390879800774e-01
7.393864830953837952e-01
7.379488991684653998e-01
7.368677386223616566e-01
7.360445942742855907e-01
7.353554421432384469e-01
7.346627907004039670e-01
7.338291484169681134e-01
7.327304913119306873e-01
7.312684122025052691e-01
7.293797624038281802e-01
7.270428420812294901e-01
7.242795333002559621e-01
7.211531669766473307e-01
7.177623325240676255e-01
7.142312361543936561e-01
7.106975516273164040e-01
7.072989527025271839e-01
7.041596455919039155e-01
7.013782197091092963e-01
6.990180059698829496e-01
6.971008864397723048e-01
6.956051612841073206e-01
6.944676818180240963e-01
6.935900408587365451e-01
6.928482144252446906e-01
6.921047109887326076e-01
6.912220390203869247e-01
6.900761745392067770e-01
6.885687103624062999e-01
6.866364978051215928e-01
6.842578370326822812e-01
6.814546101106357945e-01
6.782901479547210899e-01
6.748630399786034184e-01
6.712974923941585903e-01
6.677311789610776982e-01
6.643017734390521678e-01
6.611334820399599188e-01
6.583248941774635377e-01
6.559393407673032028e-01
6.539987038750258996e-01
6.524812836659613646e-01
6.513239314552459192e-01
6.504282400600933656e-01
6.496701854995046155e-01
6.489122762446628556e-01
6.480170207667541593e-01
6.468603950847786610e-01
6.453439920159504961e-01
6.434046628754050978e-01
6.410207078284725357e-01
6.382140089406999062e-01
6.350478971278271656e-01
6.316209618035182327e-01
6.280574091796498060e-01
6.244949130159127559e-01
6.210711470719980642e-01
6.179103175597842057e-01
6.151110138929335447e-01
6.127365669871862597e-01
6.108088589080894470e-01
6.093061898209725102e-01
6.081654110409725478e-01
6.072881153853026959e-01
6.065502788729634220e-01
6.058144099751390232e-01
6.049430171630153508e-01
6.038120764555920950e-01
6.023231806700829472e-01
6.004131811216241177e-01
5.980603779755456761e-01
5.952866532973946079e-01
5.921553380029108693e-01
5.887650215057578240e-01
5.852399100178125035e-01
5.817176772987668887e-01
5.783359971083106288e-01
5.752190756583223097e-01
5.724655023624646288e-01
5.701386081364775427e-01
5.682602750459084806e-01
5.668088032560871792e-01
5.657210440821494046e-01
5.648985903413091814e-01
5.642174180525670879e-01
5.635400356871070882e-01
5.627289517161154775e-01
5.616601421585912801e-01
5.602351998317489645e-01
5.583909760507241860e-01
5.561057709808472360e-01
5.534014666876648780e-01
5.503413940869172905e-01
5.470241425922676148e-01
5.435739184155932158e-01
5.401283953165851859e-01
5.368252470549346178e-01
5.337886798425197643e-01
5.311172830930021016e-01
5.288743877221228074e-01
5.270818757954287559e-01
5.257180474782494617e-01
5.247197540857215792e-01
5.239885884350587997e-01
5.234005265452612576e-01
5.228180768875126949e-01
5.221037479330000730e-01
5.211335157007227492e-01
5.198089730078940818e-01
5.180669711696507251e-01
5.158858103513221938e-01
5.132873726184562502e-01
5.103349888867920736e-01
5.071272485699930277e-01
5.037883578799366990e-01
5.004559905763140693e-01
4.972678204188166751e-01
4.943480536193211594e-01
4.917952795914912745e-01
4.896728292510670877e-01
4.880025846635951403e-01
4.867628459944055574e-01
4.858904645586345494e-01
4.852870331734963627e-01
4.848285278579897994e-01
4.843774570833013771e-01
4.837963293206147819e-01
4.829611205889313141e-01
4.817734237054637214e-01
4.801700899853489357e-01
4.781294195939164715e-01
4.756732945967133697e-01
4.728650459094804748e-01
4.698032629458787079e-01
4.666121519177882093e-01
4.634293865848985172e-01
4.603926407069010018e-01
4.576261204956730277e-01
4.552284153648778475e-01
4.532628562302558617e-01
4.517513251573535005e-01
4.506721223115008890e-01
4.499620990078342375e-01
4.495228480635675150e-01
4.492303454976999122e-01
4.489470997814178355e-01
4.485356193859054152e-01
4.478718803301625084e-01
4.468574754314034725e-01
4.454292560047646288e-01
4.435655222155752142e-01
4.412881561293827692e-01
4.386604886619273613e-01
4.357811092268713549e-01
4.327742240360929471e-01
4.297775068492836192e-01
4.269286314261335202e-01
4.243518039785204032e-01
4.221456139201072433e-01
4.203733921666346629e-01
4.190570207836490368e-01
4.181747999364808233e-01
4.176635809402654553e-01
4.174249566122173460e-01
4.173349029713362968e-01
4.172559284888078257e-01
4.170505416358163409e-01
4.165947184313623097e-01
4.157900516926588685e-01
4.145733927348427827e-01
4.129230417232440664e-01
4.108608807234093163e-01
4.084502406510790995e-01
4.057897109199156693e-01
4.030034977417973341e-01
4.002292748764147423e-01
3.976047160834599303e-01
3.952540275748084309e-01
3.932757987641248287e-01
3.917333605671488028e-01
3.906485950494272830e-01
3.899998023762905053e-01
3.897238338628742360e-01
3.897222823263924441e-01
3.898711237858444867e-01
3.900328667124169368e-01
3.900700195772938139e-01
3.898585583994751413e-01
3.893000759961748880e-01
3.883314236825291532e-01
3.869309016238679511e-01
3.851203918857387110e-01
3.829632253838808342e-01
3.805579915319572404e-01
3.780288965418459601e-01
3.755136141732379196e-01
3.731498181858244889e-01
3.710617147914825886e-01
3.693478934038757489e-01
3.680716849387438150e-01
3.672549714616334393e-01
3.668760531378753575e-01
3.668717812826051694e-01
3.671437487130367883e-01
3.675679314481702376e-01
3.680068379591907024e-01
3.683229767172827018e-01
3.683923237414470364e-01
3.681164718488970644e-01
3.674322723547691072e-01
3.663180254243929568e-01
3.647956131233156540e-01
3.629283663672778770e-01
3.608148745699414905e-01
3.585793439431845253e-01
3.563594482466985180e-01
3.542928612401740063e-01
3.525037891354885766e-01
3.510908213463056482e-01
3.501172887883649554e-01
3.496050735272133725e-01
3.495324757281811356e-01
3.498363467064043997e-01
3.504182792790965784e-01
3.511542494652581947e-01
3.519067657360740453e-01
3.525383365627293153e-01
3.529249379642233064e-01
3.529681627577709313e-01
3.526048622585080117e-01
3.518133366317641175e-01
3.506154679430864562e-01
3.490745871082152618e-01
3.472892835408129542e-01
3.453837634527579525e-01
3.434957006037414051e-01
3.417627687534534053e-01
3.403091741137717618e-01
3.392335060983598938e-01
3.385990956229579241e-01
3.384278247531122830e-01
3.386979936541527070e-01
3.393464536412165167e-01
3.402747975315175699e-01
3.413590013440540027e-01
3.424615735500122771e-01
3.434450226205776890e-01
3.441853245747498735e-01
3.445840722297419112e-01
3.445781169006910116e-01
3.441457587529268558e-01
3.433088798519959850e-01
3.421308111136392438e-01
3.407101419515191076e-01
3.391710785775125525e-01
3.376512947513116147e-01
3.362884642326078866e-01
3.352067932332776778e-01
3.345048711669839636e-01
3.342460289494676995e-01
3.344521486462750937e-01
3.351015304227365488e-01
3.361310255939883862e-01
3.374422269772435756e-01
3.389111105915033062e-01
3.404001849079515418e-01
3.417719583977743558e-01
3.429024070799715496e-01
3.436931237717554821e-01
3.440809597882637516e-01
3.440442152948261501e-01
3.436047723569899959e-01
3.430203076570492726e-01
3.425799437087660437e-01
3.424021677243327400e-01
3.426189344637575740e-01
3.433621986870472043e-01
3.447504476063952827e-01
3.468765516357792400e-01
3.497981226912565966e-01
3.535313238386896817e-01
3.580487362437241305e-01
3.632814922218127740e-01
3.691254655904844806e-01
3.754509133690548950e-01
3.821146250290250457e-01
3.889733900418975709e-01
3.958974654269862836e-01
4.027827250018216620e-01
4.095603010818558154e-01
4.162027748327343790e-01
4.227263093203201816e-01
4.291885164606699110e-01
4.356822666677617750e-01
4.423260471537883154e-01
4.492518126787580224e-01
4.565915180026774989e-01
4.644636503377398418e-01
4.729610800979236473e-01
4.821414191992857701e-01
4.920208307076881504e-01
5.025718957887770344e-01
5.137257467580049752e-01
5.253782574329008970e-01
5.373996848328631559e-01
5.496468184394737166e-01
5.619764477537326774e-01
5.742588298266835256e-01
5.863898385075866360e-01
5.983006061436231260e-01
6.099637139321677504e-01
6.213953249708130677e-01
6.326530512073443857e-01
6.438297630874704192e-01
6.550439478551119965e-01
6.664275603020073380e-01
6.781125552198921103e-01
6.902174198526890292e-01
7.028350246461060324e-01
7.160229815479289828e-01
7.297974536557498837e-01
7.441310221669431568e-01
7.589548194286914740e-01
7.741647192902531005e-01
7.896309788026728560e-01
8.052103874691814989e-01
8.207597347930101206e-01
8.361492778252022084e-01
8.512748904150176932e-01
8.660677049096380253e-01
8.805003025064381816e-01
8.945888463030104987e-01
9.083909482471402841e-01
9.219994787845356976e-01
9.355329251591187889e-01
9.491232421626267790e-01
9.629023845867966669e-01
9.769888396755495030e-01
9.914754778745937802e-01
1.006419911131715583e+00
1.021838302544506583e+00
1.037703233310342199e+00
1.053945835776403772e+00
1.070461983791949789e+00
1.087121934408025847e+00
1.103782477127862149e+00
1.120300401454690009e+00
1.136545964439552581e+00
1.152415039931710572e+00
1.167838760278344434e+00
1.182789706676829811e+00
1.197284042224758815e+00
1.211379378869916978e+00
1.225168587058012237e+00
1.238770154032966087e+00
1.252316034586516968e+00
1.265938183510400661e+00
1.279755088048539102e+00
1.293859618646640453e+00
1.308309387252490907e+00
1.323120556963682137e+00
1.338265708977588675e+00
1.353675975641393636e+00
1.369247230804354398e+00
1.384849731517515892e+00
1.400340267284109874e+00
1.415575627607366105e+00
1.430426069538330180e+00
1.444787466926259922e+00
1.458590952118337114e+00
1.471809106311937621e+00
1.484458092604652668e+00
1.496595522944268897e+00
1.508314267776493134e+00
1.519732814345248650e+00
1.530983117442271224e+00
1.542197131859298853e+00
1.553493344840252144e+00
1.564964626830841254e+00
1.576668589778849272e+00
1.588621396781870088e+00
1.600795629037278012e+00
1.613122418892255050e+00
1.625497640196060800e+00
1.637791549999738638e+00
1.649860937806519212e+00
1.661562593119634279e+00
1.672766772990128104e+00
1.683369351267259395e+00
1.693301460298209715e+00
1.702535681280355373e+00
1.711088177311286262e+00
1.719016560338789690e+00
1.726413700808573370e+00
1.733398085964559687e+00
1.740101670598484418e+00
1.746656409502085117e+00
1.753180789919283500e+00
1.759767682295788838e+00
1.766474698579385327e+00
1.773318001867665306e+00
1.780270173358004637e+00
1.787262345397584440e+00
1.794190391835663423e+00
1.800924569723286517e+00
1.807321668563684369e+00
1.813238477860088071e+00
1.818545254663541666e+00
1.823137872823304750e+00
1.826947464686557776e+00
1.829946611450677274e+00
1.832151476213254471e+00
1.833619670922074896e+00
1.834444066022847819e+00
1.834743148759493847e+00
1.834648873923750312e+00
1.834293196307354767e+00
1.833794603154228042e+00
1.833386100962407506e+00
1.833270080883253161e+00
1.833469670741225244e+00
1.833964416460567515e+00
1.834692415115329878e+00
1.835556505281640938e+00
1.836433908737412857e+00
1.837188379712745512e+00
1.837683672437737448e+00
1.837797008690302825e+00
1.837431227046568250e+00
1.836524424580584514e+00
1.835056147216595157e+00
1.833049522779061080e+00
1.830569127942635932e+00
1.827714797879896658e+00
1.824611984561634204e+00
1.821399607506453577e+00
1.818216586232960008e+00
1.815188372711945330e+00
1.812414802115984491e+00
1.809960451119733138e+00
1.807848447547650617e+00
1.806058337323981799e+00
1.804528217522776146e+00
1.803160926720161816e+00
1.801833686694050751e+00
1.800410251674543716e+00
1.798754375891738810e+00
1.796743281123550862e+00
1.794279805946105588e+00
1.791302047433454225e+00
1.787789551509840313e+00
1.783765445999723864e+00
1.779294307577760081e+00
1.774475971416525022e+00
1.769435889486809410e+00
1.764312981307218697e+00
1.759246166396358113e+00
1.754360896725018826e+00
1.749757007465777114e+00
1.745499075293287294e+00
1.741610228032009600e+00
1.738070011606188459e+00
1.734816523089872886e+00
1.731752601059192376e+00
1.728755467292057979e+00
1.725688876018570017e+00
1.722416581468827701e+00
1.718815805420744747e+00
1.714789386450447761e+00
1.710275421631987314e+00
1.705253456889607389e+00
1.699746620047768442e+00
1.693819487781124344e+00
1.687571895262252486e+00
1.681129294461942925e+00
1.674630604898800890e+00
1.668214746091432055e+00
1.662007170010627810e+00
1.656107711828963325e+00
1.650580948221094246e+00
1.645450007011479920e+00
1.640694434124365220e+00
1.636252326633799603e+00
1.632026523115911454e+00
1.627894245348612268e+00
1.623719247562003254e+00
1.619365283986181847e+00
1.614709576399063096e+00
1.609654963376773162e+00
1.604139541993363061e+00
1.598142858173076108e+00
1.591688039740372984e+00
1.584839663369907559e+00
1.577697564234257444e+00
1.570387194304213141e+00
1.563047473098379214e+00
1.555817320135360893e+00
1.548822187385950011e+00
1.542161910022722404e+00
1.535901064720332609e+00
1.530062779303241305e+00
1.524626599695691809e+00
1.519530622971734024e+00
1.514677687707496556e+00
1.509945015680892455e+00
1.505196361122020265e+00
1.500295478260979420e+00
1.495119588875683636e+00
1.489571531542260185e+00
1.483589403334758750e+00
1.477152750177423979e+00
1.470284699894715885e+00
1.463049829161288340e+00
1.455547973149718954e+00
1.447904583830798009e+00
1.440258580723131177e+00
1.432748883345322577e+00
1.425500943668163822e+00
1.418614596864232524e+00
1.412154419608180778e+00
1.406143539724471037e+00
1.400561503137345731e+00
1.395346406920855875e+00
1.390401089651128075e+00
1.385602773106077379e+00
1.380815211515801222e+00
1.375902159110399703e+00
1.370740837667785650e+00
1.365234085764087224e+00
1.359320000473353884e+00
1.352978127719830059e+00
1.346231595327975761e+00
1.339144979972445082e+00
1.331818116825815190e+00
1.324376457858877032e+00
1.316958922590235392e+00
1.309704430538495501e+00
1.302738433674448304e+00
1.296160767170671413e+00
1.290036007701817367e+00
1.284387283092347953e+00
1.279194139266506047e+00
1.274394673298342218e+00
1.269891723763984182e+00
1.265562512441345655e+00
1.261270793560524073e+00
1.256880321351620644e+00
1.252268317592547531e+00
1.247337620859433116e+00
1.242026328226326415e+00
1.236313985617472522e+00
1.230223720857331227e+00
1.223820110620555957e+00
1.217202990079724989e+00
1.210497811205628604e+00
1.203843493516871366e+00
1.197378956532058725e+00
1.191229652221982294e+00
1.185495415759218130e+00
1.180240823818420770e+00
1.175489004224050449e+00
1.171219502900350928e+00
1.167370416921372334e+00
1.163844584863242160e+00
1.160519228503874789e+00
1.157258102073367656e+00
1.153924959801820638e+00
1.150397023467147450e+00
1.146577131645476033e+00
1.142403381410855401e+00
1.137855318687529982e+00
1.132956071299960454e+00
1.127770215922799801e+00
1.122397587728626078e+00
1.116963638688230676e+00
1.111607288320216824e+00
1.106467456143190642e+00
1.101669594127943741e+00
1.097313537447051957e+00
1.093463862775169604e+00
1.090143697936757583e+00
1.087332588856058990e+00
1.084968632607124395e+00
1.082954667766081513e+00
1.081167916110844063e+00
1.079472131871509921e+00
1.077731069278179188e+00
1.075821950108764913e+00
1.073647612939394813e+00
1.071146154844118792e+00
1.068297121747181500e+00
1.065123641473041616e+00
1.061690290696355232e+00
1.058096904589697962e+00
1.054468935123861639e+00
1.050945301817450606e+00
1.047664924189069868e+00
1.044753254209510596e+00
1.042310127051350399e+00
1.040400119389242262e+00
1.039046359047647083e+00
1.038228391950809071e+00
1.037884315172777461e+00
1.037916967289680192e+00
1.038203570079431426e+00
1.038607877772129262e+00
1.038993644597873134e+00
1.039238092334576979e+00
1.039244059558367628e+00
1.038949643343295204e+00
1.038334389613604136e+00
1.037421426193754437e+00
1.036275329758400199e+00
1.034995935480118368e+00
1.033708695329700555e+00
1.032548817815888587e+00
1.031646552838374920e+00
1.031119914454377673e+00
1.031061299922897634e+00
1.031527848005014736e+00
1.032535248611614387e+00
1.034055609753366856e+00
1.036019590590746331e+00
1.038322591786306592e+00
1.040834397204385642e+00
1.043411323161509641e+00
1.045909685974201198e+00
1.048199269506800091e+00
1.050175474421858546e+00
1.051768959879853194e+00
1.052951833891452305e+00
1.053739786367541953e+00
1.054189956069202072e+00
1.054394740255433671e+00
1.054472152983454203e+00
1.054553675858293849e+00
1.054770790484983012e+00
1.055241510920737813e+00
1.056058234424561038e+00
1.057278099757531731e+00
1.058916796830535301e+00
1.060946433654242238e+00
1.063297669389126732e+00
1.065865904697742561e+00
1.068520923444427506e+00
1.071119041945707728e+00
1.073516576518105392e+00
1.075583311025961386e+00
1.077214646131827713e+00
1.078341240996180117e+00
1.078935203629687756e+00
1.079012223943236259e+00
1.078629440697905562e+00
1.077879251152696449e+00
1.076879669364827929e+00
1.075762176939328185e+00
1.074658255481228508e+00
1.073739283270607858e+00
1.073155163376605437e+00
1.072969246941209764e+00
1.073203436256215060e+00
1.073836051713200845e+00
1.074803964853550564e+00
1.076008788720727471e+00
1.077326519559979046e+00
1.078619686068739147e+00
1.079750816944441194e+00
1.080595908432333108e+00
1.081056573575877700e+00
1.081069683916459301e+00
1.080613559845655880e+00
1.079710103655262765e+00
1.078422666487269366e+00
1.076849857981585723e+00
1.075115904576338099e+00
1.073358500257467041e+00
1.071715339010910872e+00
1.070310647274795413e+00
1.069243034689032257e+00
1.068575852395610148e+00
1.068331002686324194e+00
1.068486805952752805e+00
1.068980133736279869e+00
1.069712599080368420e+00
1.070560198230266158e+00
1.071385459883407609e+00
1.072050912737224859e+00
1.072432553036966940e+00
1.072431993826095775e+00
1.071986106645995918e+00
1.071073211888246224e+00
1.069715211844641134e+00
1.067975457657169835e+00
1.065952558965743036e+00
1.063770742208487219e+00
1.061567701371341377e+00
1.059481130440246055e+00
1.057635255853325296e+00
1.056128687250491582e+00
1.055024775773733436e+00
1.054345423714845520e+00
1.054068951465407133e+00
1.054132230566802164e+00
1.054436874062492091e+00
1.054858878197726391e+00
1.055260771669938480e+00
1.055505083176561332e+00
1.055467808962843312e+00
1.055050562072246567e+00
1.054190214046155649e+00
1.052865085276148971e+00
1.051097078054022083e+00
1.048949543521763061e+00
1.046521091319283281e+00
1.043935947884708781e+00
1.041331807203978999e+00
1.038846363263033590e+00
1.036603842499997929e+00
1.034702854554783835e+00
1.033206750569379828e+00
1.032137432835580348e+00
1.031473221744964475e+00
1.031150988838916760e+00
1.031072347160899128e+00
1.031113292956160166e+00
1.031136354922133069e+00
1.031004061756251033e+00
1.030592409703762868e+00
1.029803011808130275e+00
1.028572739610738473e+00
1.026879913503165431e+00
1.024746435777206033e+00
1.022235657574850132e+00
1.019446188536007103e+00
1.016502255098803875e+00
1.013541551249179884e+00
1.010701770973075009e+00
1.008107140708614180e+00
1.005856270095709437e+00
1.004012510276349301e+00
1.002597763542328213e+00
1.001590350285225473e+00
1.000927142046425189e+00
1.000509751869389730e+00
1.000214175999366795e+00
9.999029431337908003e-01
9.994385819700944973e-01
9.986970887535259189e-01
9.975800765275479876e-01
9.960244168335451453e-01
9.940084300630953607e-01
9.915540185079940727e-01
9.887245333102301359e-01
9.856185841097148126e-01
9.823603973445722559e-01
9.790876670007447879e-01
9.759380870641704009e-01
9.730358839729748022e-01
9.704796673670690321e-01
9.683327883884426113e-01
9.666171493288903127e-01
9.653110705799902158e-01
9.643514236831275399e-01
9.636398216817639861e-01
9.630522608211473656e-01
9.624512697987118726e-01
9.616993773118915900e-01
9.606725796059333300e-01
9.592724897242995707e-01
9.574359792083757537e-01
9.551413684497395140e-01
9.524105597401861800e-01
9.493069042217046061e-01
9.459290115342059435e-01
9.424011081158152336e-01
9.388608879524735773e-01
9.354460450301198549e-01
9.322808057868789966e-01
9.294637798626629310e-01
9.270583183994604015e-01
9.250863236890666252e-01
9.235261161230595706e-01
9.223145672428245678e-01
9.213532900918224300e-01
9.205182809153025225e-01
9.196720684106979293e-01
9.186771812754430666e-01
9.174096157547848573e-01
9.157709848921857798e-01
9.136981602290308313e-01
9.111694621568979802e-01
9.082067929675828877e-01
9.048735038030737421e-01
9.012682043032820278e-01
8.975151209063330082e-01
8.937519475981672290e-01
8.901163783647235705e-01
8.867326396441282954e-01
8.836993410762916668e-01
8.810798338032029831e-01
8.788960201166576836e-01
8.771262204082336256e-01
8.757073062193160284e-01
8.745408905933664823e-01
8.735029697756325762e-01
8.724560724635489484e-01
8.712627273545495710e-01
8.697989306938813669e-01
8.679662955250067036e-01
8.657016933893108002e-01
8.629834446783715141e-01
8.598334516839840624e-01
8.563150655481378548e-01
8.525268959107431543e-01
8.485931692099256685e-01
8.446515794316256098e-01
8.408398205617827470e-01
8.372821190385220103e-01
8.340770845017549950e-01
8.312880680934706668e-01
8.289369721054639095e-01
8.270021169293128027e-01
8.254203741064025657e-01
8.240933566801952326e-01
8.228970608959381705e-01
8.216940154510656846e-01
8.203467490430117470e-01
8.187312579170229476e-01
8.167491551165630970e-01
8.143373121830163042e-01
8.114740495079604266e-01
8.081812693831911254e-01
8.045223229506970331e-01
8.005958198503897449e-01
7.965259865203937473e-01
7.924505169466498078e-01
7.885071051150972510e-01
7.848199774638616733e-01
7.814877436328541149e-01
7.785737547640637635e-01
7.760999131492855030e-01
7.740445391800971908e-01
7.723445043978847124e-01
7.709014218461092138e-01
7.695912877700189503e-01
7.682766308670473387e-01
7.668199798346290175e-01
7.650973309180107984e-01
7.630102971606550488e-01
7.604957501039473211e-01
7.575320101394649175e-01
7.541409795590037213e-01
7.503860095045521428e-01
7.463657096160216664e-01
7.422043063315371114e-01
7.380394936370392456e-01
7.340089655184677264e-01
7.302369484139471512e-01
7.268220519633891152e-01
7.238276273087829171e-01
7.212755767419231079e-01
7.191442206543883220e-01
7.173704305875633347e-01
7.158558195849095140e-01
7.144763838916756704e-01
7.130946522052952208e-01
7.115731532232024703e-01
7.097878831906443420e-01
7.076404551510834251e-01
7.050677406459046059e-01
7.020480600666857418e-01
6.986033157052228271e-01
6.947968587035038279e-01
6.907272987014404508e-01
6.865188621371574040e-01
6.823092429965956773e-01
6.782361352656942621e-01
6.744237653825790879e-01
6.709707429871607509e-01
6.679404192214283276e-01
6.653546963771771461e-01
6.631918948459853969e-01
6.613888861692377441e-01
6.598472833903966661e-01
6.584430827547089748e-01
6.570388129596096416e-01
6.554970027025320833e-01
6.536936482287244443e-01
6.515303625816479816e-01
6.489440173026882475e-01
6.459129327834232104e-01
6.424590113156479765e-01
6.386456040413519553e-01
6.345713206004456319e-01
6.303603874310547139e-01
6.261504985191184147e-01
6.220793478505778351e-01
6.182711618635575723e-01
6.148245501979689998e-01
6.118028639958006387e-01
6.092280055488480395e-01
6.070782952486893924e-01
6.052906046367092507e-01
6.037665467563703148e-01
6.023821178529197296e-01
6.009998466237913561e-01
5.994822617664189446e-01
5.977053595260514163e-01
5.955707529461496952e-01
5.930153135680992227e-01
5.900173617834776341e-01
5.865987998840804796e-01
5.828229790118968356e-01
5.787885088068379646e-01
5.746196157070285748e-01
5.704539936984085458e-01
5.664293367669185342e-01
5.626698713506832483e-01
5.592742070896141726e-01
5.563056951257000504e-01
5.537862377507360989e-01
5.516941553563003975e-01
5.499663194837779434e-01
5.485043431766311040e-01
5.471842226801071352e-01
5.458684866916400091e-01
5.444196639086635869e-01
5.427137505764260128e-01
5.406523597383887658e-01
5.381723629359372874e-01
5.352520805606495458e-01
5.319134149043205362e-01
5.282197171089394461e-01
5.242695968144172047e-01
5.201872804588800747e-01
5.161104620282661593e-01
5.121768355085165592e-01
5.085106273377566488e-01
5.052104471558971355e-01
5.023396461049269845e-01
4.999201264766419683e-01
4.979302086626196111e-01
4.963067642042444105e-01
4.949514061449796776e-01
4.937401307300723907e-01
4.925354666569565221e-01
4.911999426230655996e-01
4.896095548736483227e-01
4.876659164521660039e-01
4.853058989000034740e-01
4.825078226087393118e-01
4.792935898701684017e-01
4.757265518262799309e-01
4.719053181169849953e-01
4.679541151804090249e-01
4.640106370024913995e-01
4.602125775691723319e-01
4.566841633185779181e-01
4.535240038906181437e-01
4.507954504272822516e-01
4.485204052203655700e-01
4.466771886614464004e-01
4.452026722919091850e-01
4.439984691552169016e-01
4.429405754966155850e-01
4.418915200135409282e-01
4.407138314034258486e-01
4.392835059115186569e-01
4.375021565812807767e-01
4.353066549540975938e-01
4.326753214215473542e-01
4.296300582754245534e-01
4.262342166577191005e-01
4.225864062083413142e-01
4.188108533654168464e-01
4.150452521148853546e-01
4.114272964426870516e-01
4.080812127869475336e-01
4.051056107875774526e-01
4.025638415865659403e-01
4.004778074757079920e-01
3.988258288465816870e-01
3.975447772405723001e-01
3.965362657011420877e-01
3.956762904735380282e-01
3.948273802551940936e-01
3.938520637435445892e-01
3.926263371838377703e-01
3.910518136195346162e-01
3.890653645920206238e-01
3.866453104928738727e-01
3.838135536138893023e-01
3.806334450970561001e-01
3.772035945822858616e-01
3.736482285077033505e-01
3.701050408592478913e-01
3.667117256228605293e-01
3.635925092366660283e-01
3.608460013405757061e-01
3.585355530765782506e-01
3.566830667364689900e-01
3.552668627118260036e-01
3.542238125440342333e-01
3.534555292765561574e-01
3.528380091546388098e-01
3.522337808757166067e-01
3.515053731372227430e-01
3.505287821844054741e-01
3.492056210607274447e-01
3.474727613075726529e-01
3.453085233165195111e-01
3.427348093793636252e-01
3.398149706380929058e-01
3.366476167326194480e-01
3.333569741010690146e-01
3.300807367293803751e-01
3.269565986034931870e-01
3.241087861615338794e-01
3.216359090434131596e-01
3.196013183911201594e-01
3.180269164964495410e-01
3.168910237509795502e-01
3.161305116960955730e-01
3.156469933752593660e-01
3.153164650337190733e-01
3.150014553689080565e-01
3.145644930782602322e-01
3.138815744070231339e-01
3.128543123986597396e-01
3.114195785945541028e-01
3.095556933862849136e-01
3.072845590656472226e-01
3.046695267746291069e-01
3.018092061531431058e-01
2.988278236393139276e-01
2.958630732190820622e-01
2.930526488783853356e-01
2.905207770553511204e-01
2.883660673898903459e-01
2.866518710239914225e-01
2.854000902494496783e-01
2.845890454578433038e-01
2.841556081905571851e-01
2.840013914910525794e-01
2.840023916045795183e-01
2.840211372285693092e-01
2.839201570604569791e-01
2.835754473454903946e-01
2.828886211271320339e-01
2.817965499467658397e-01
2.802775541959702243e-01
2.783535361665406271e-01
2.760878470004651808e-01
2.735790963376563134e-01
2.709515106162390108e-01
2.683427838221529860e-01
2.658906099413370083e-01
2.637192154119185061e-01
2.619272098738074650e-01
2.605779444689930724e-01
2.596933214892696018e-01
2.592516613262166869e-01
2.591898355212183813e-01
2.594094571177362751e-01
2.597865223610201779e-01
2.601835599485014527e-01
2.604630985776148488e-01
2.605011344936085105e-01
2.601992807399445273e-01
2.594944088580072861e-01
2.583648392393757542e-01
2.568324741758440388e-01
2.549606648094019934e-01
2.528480207799607138e-01
2.506187685256447972e-01
2.484106020323950670e-01
2.463612152861505145e-01
2.445948347250369026e-01
2.432100699889656326e-01
2.422702722199251424e-01
2.417973437097109823e-01
2.417696048499010930e-01
2.421239271818805827e-01
2.427619237491101811e-01
2.435595907968408635e-01
2.443794570225036877e-01
2.450840511235331254e-01
2.455493693451770709e-01
2.456770247308975030e-01
2.454038888220800574e-01
2.447082820103023415e-01
2.436121065873592118e-01
2.421787136952397168e-01
2.405067129738555076e-01
2.387203308613317920e-01
2.369572613436080610e-01
2.353551984066236391e-01
2.340383684885058435e-01
2.331053812291643546e-01
2.326195877705882487e-01
2.326028904045727708e-01
2.330336095226964999e-01
2.338486166663434618e-01
2.349495248789767732e-01
2.362123304058428575e-01
2.374995619443769912e-01
2.386737481920123416e-01
2.396108853939964423e-01
2.402125865937919658e-01
2.404157233327834930e-01
2.401986160025492423e-01
2.395831668948849580e-01
2.386327271517784399e-01
2.375877592626194079e-01
2.367117927734885829e-01
2.361386970580416633e-01
2.360023414899335981e-01
2.364231278950078563e-01
2.374958413008907698e-01
2.392800082372870951e-01
2.417937063837080902e-01
2.450114315194480419e-01
2.488662305736077107e-01
2.532558919773654216e-01
2.580525873636850265e-01
2.631150208177163718e-01
2.683018964246092763e-01
2.734853858173278418e-01
2.785632774270501710e-01
2.834686181828771079e-01
2.881759038641029114e-01
2.927032121502389228e-01
2.971100695709890105e-01
3.014912611539821152e-01
3.059671887250600686e-01
3.106717216578767649e-01
3.157387293260887073e-01
3.212886135555370060e-01
3.274161593738505460e-01
3.341808933107331403e-01
3.416008930456956305e-01
3.496506543580334969e-01
3.582632241768464176e-01
3.673363909333129396e-01
3.767423262603971090e-01
3.863397342432487447e-01
3.959873189670176652e-01
4.055572520646676948e-01
4.149473219673773805e-01
4.240905756042470665e-01
4.329615087545715668e-01
4.415781990978618898e-01
4.500001731638227365e-01
4.583222159800804940e-01
4.666647293724788814e-01
4.751615827146734028e-01
4.839466453803180079e-01
4.931403191952544174e-01
5.028373891871118495e-01
5.130973818855938395e-01
5.239383749702120063e-01
5.353348642202604424e-01
5.472198965648399360e-01
5.594912604351286456e-01
5.720211274640908394e-01
5.846682017368759476e-01
5.972911873386340664e-01
6.097622559023291311e-01
6.219791958591394110e-01
6.338750541381655834e-01
6.454243265187018519e-01
6.566450906802597798e-01
6.675968731525439015e-01
6.783744589631806043e-01
6.890982499380133852e-01
6.999021154506973597e-01
7.109199248748888644e-01
7.222720800364267335e-01
7.340533659629414620e-01
7.463233091841363631e-01
7.590999873795230002e-01
7.723578963283955767e-01
7.860300829598549921e-01
8.000143357050794046e-01
8.141828261970327496e-01
8.283942585208647902e-01
8.425073367617254005e-01
8.563942325525788490e-01
8.699527343246028499e-01
8.831158890068987466e-01
8.958581923787599655e-01
9.081977221196992911e-01
9.201940047594199257e-01
9.319418253255490336e-01
9.435615856439296678e-01
9.551871550882171658e-01
9.669524030320668651e-01
9.789777313013208193e-01
9.913579249236058599e-01
1.004152510428626854e+00
1.017379565495895477e+00
1.031013585904705598e+00
1.044987618584158229e+00
1.059199451965431527e+00
1.073521257681489649e+00
1.087811739817482692e+00
1.101929602458558310e+00
1.115747017237683325e+00
1.129161772586034784e+00
1.142106915432713476e+00
1.154556941557013605e+00
1.166529928638446290e+00
1.178085403206717396e+00
1.189318150289452092e+00
1.200348571712493762e+00
1.211310536849498520e+00
1.222337915074120929e+00
1.233551108212202818e+00
1.245044901291371797e+00
1.256878820841332622e+00
1.269070944541596191e+00
1.281595768171457150e+00
1.294386338660016733e+00
1.307340444438452209e+00
1.320330257139727737e+00
1.333214480848994743e+00
1.345851819651400438e+00
1.358114445179909868e+00
1.369900145865701635e+00
1.381141968637876305e+00
1.391814409275728304e+00
1.401935545458768972e+00
1.411564903716702624e+00
1.420797269077156644e+00
1.429753043365973530e+00
1.438566095956807844e+00
1.447370296223316366e+00
1.456286045991339373e+00
1.465408130288505806e+00
1.474796075644519977e+00
1.484467959738891674e+00
1.494398278350917986e+00
1.504520078409696371e+00
1.514731148346407430e+00
1.524903659794014654e+00
1.534896316837668362e+00
1.544567823562516429e+00
1.553790351601524344e+00
1.562461689385869823e+00
1.570514883844654319e+00
1.577924430757172036e+00
1.584708407802932761e+00
1.590926341511643249e+00
1.596673016910929999e+00
1.602068835826634174e+00
1.607247667632412780e+00
1.612343381701920375e+00
1.617476379860998348e+00
1.622741447137275417e+00
1.628198110060454784e+00
1.633864446310048901e+00
1.639714951665351972e+00
1.645682673055464784e+00
1.651665398911564164e+00
1.657535300866616046e+00
1.663151083005768971e+00
1.668371449414174368e+00
1.673068571724793729e+00
1.677140238368806546e+00
1.680519496275313607e+00
1.683180841223609336e+00
1.685142350893205299e+00
1.686463551813805584e+00
1.687239229013037800e+00
1.687589784316743557e+00
1.687649087098578082e+00
1.687551006732198378e+00
1.687415945043445831e+00
1.687338687059945830e+00
1.687378759311405130e+00
1.687637075391904107e+00
1.688174531899778286e+00
1.688929523120834775e+00
1.689805184842956942e+00
1.690679036055815931e+00
1.691415128201266604e+00
1.691877512721167598e+00
1.691943708605186947e+00
1.691516851641210017e+00
1.690535336115043474e+00
1.688979005162688063e+00
1.686871283820361889e+00
1.684277045974475140e+00
1.681296424009361967e+00
1.678055167107570078e+00
1.674692491999461907e+00
1.671347615415398780e+00
1.668146286537929290e+00
1.665188637751385814e+00
1.662539542942181425e+00
1.660222427146531787e+00
1.658217133500438534e+00
1.656462056289709217e+00
1.654860331302226983e+00
1.653289477527662532e+00
1.651613546407872057e+00
1.649696589384711753e+00
1.647416125447851654e+00
1.644675290385176902e+00
1.641412478482493720e+00
1.637607532875802852e+00
1.633283878601323069e+00
1.628506389545463673e+00
1.623375198092559479e+00
1.618016053425157308e+00
1.612568172273620259e+00
1.607170771368309881e+00
1.601949599891773879e+00
1.597004790228346183e+00
1.592401216264438091e+00
1.588162303036267042e+00
1.584267893679832673e+00
1.580656382480943867e+00
1.577230905227483548e+00
1.573868980909122417e+00
1.570434660967716667e+00
1.566791996845122270e+00
1.562818507531009482e+00
1.558417328813263003e+00
1.553526854977689942e+00
1.548126929160290821e+00
1.542240976397283081e+00
1.535933870575077576e+00
1.529305744078008233e+00
1.522482346088622318e+00
1.515602893337282930e+00
1.508806602554352949e+00
1.502219222922377417e+00
1.495940886825691596e+00
1.490036468150707005e+00
1.484529391933639975e+00
1.479399501310491916e+00
1.474585190567070159e+00
1.469989595491258294e+00
1.465490235072726799e+00
1.460951160753331868e+00
1.456236423974930361e+00
1.451223543727191645e+00
1.445815655798000421e+00
1.439951154473163575e+00
1.433609882888681852e+00
1.426815266080773581e+00
1.419632177935848727e+00
1.412160750838241663e+00
1.404526733970498098e+00
1.396869344062983798e+00
1.389327797846058088e+00
1.382027844502271119e+00
1.375069616415953266e+00
1.368517987473518271e+00
1.362396382711182463e+00
1.356684645264947031e+00
1.351321169420618418e+00
1.346209090966081767e+00
1.341225928891007113e+00
1.336235734637250205e+00
1.331102559646667238e+00
1.325703922908928911e+00
1.319942960211919036e+00
1.313758065841445832e+00
1.307129082933508268e+00
1.300079436524325338e+00
1.292674000500308118e+00
1.285012907245789204e+00
1.277221905943315639e+00
1.269440213323252076e+00
1.261807046115959174e+00
1.254448153503984864e+00
1.247463667871662629e+00
1.240918463105403990e+00
1.234835964241426165e+00
1.229196014415729232e+00
1.223937007914121189e+00
1.218962080524485847e+00
1.214148751236493906e+00
1.209361071492001116e+00
1.204463092732865004e+00
1.199332333948752716e+00
1.193871930927551617e+00
1.188020277955067483e+00
1.181757218167301726e+00
1.175106176600470231e+00
1.168132027140986295e+00
1.160934902173182737e+00
1.153640550879606597e+00
1.146388189990619644e+00
1.139317036236585423e+00
1.132552838800051198e+00
1.126195730065350897e+00
1.120310583918894931e+00
1.114920825396901183e+00
1.110006297635370176e+00
1.105505394920108575e+00
1.101321253039001746e+00
1.097331390981719501e+00
1.093399860190117590e+00
1.089390712106052650e+00
1.085181465719195160e+00
1.080675256817428265e+00
1.075810479686560406e+00
1.070566977462592329e+00
1.064968175181739696e+00
1.059078946730415582e+00
1.052999424492953029e+00
1.046855357651900631e+00
1.040785962937617493e+00
1.034930457080468491e+00
1.029414589263001556e+00
1.024338491869548839e+00
1.019767038786522750e+00
1.015723655050139396e+00
1.012188183796400409e+00
1.009099019311112455e+00
1.006359297382160234e+00
1.003846536999213779e+00
1.001424789604129728e+00
9.989581066387633879e-01
9.963240070927863457e-01
9.934256267540809704e-01
9.902013599084557027e-01
9.866310496919112882e-01
9.827381211406645001e-01
9.785874481411267478e-01
9.742791630776321821e-01
9.699390151327279552e-01
9.657062210367769461e-01
9.617199975201402573e-01
9.581060937653663734e-01
9.549646421567884458e-01
9.523605165808177730e-01
9.503171420736720165e-01
9.488143617713518108e-01
9.477905699596638200e-01
9.471489024264939660e-01
9.467668781615092843e-01
9.465085486065687448e-01
9.462379652035280975e-01
9.458326469420573757e-01
9.451957296100401695e-01
9.442656074932842536e-01
9.430221237277904844e-01
9.414887033497751911e-01
9.397302202456513376e-01
9.378468067997510760e-01
9.359642121946234461e-01
9.342216531606288843e-01
9.327583464281311576e-01
9.317000411796768633e-01
9.311468697996002630e-01
9.311498897883921932e-01
9.317140168508293296e-01
9.328120547046317990e-01
9.343753582173254246e-01
9.363000237585150654e-01
9.384565308995884703e-01
9.407018916641204376e-01
9.428931180756886521e-01
9.449006897056819732e-01
9.466207029237023729e-01
9.479845125972775621e-01
9.489649224441267794e-01
9.495783180821868452e-01
9.498825339795882172e-01
9.499706631023833170e-01
9.499614152148393442e-01
9.499869676290378928e-01
9.501794976570597795e-01
9.506577150631718709e-01
9.515147128134274768e-01
9.528083253759563886e-01
9.545549383686956491e-01
9.567273555093649406e-01
9.592569316654903089e-01
9.620397632066767235e-01
9.649463297043114896e-01
9.678336431819708485e-01
9.705587156632301538e-01
9.729920267194785977e-01
9.750296727203201508e-01
9.766030085332809696e-01
9.776848378760809588e-01
9.782915463666564948e-01
9.784809684731382573e-01
9.783461971615786679e-01
9.780059421962448152e-01
9.775923808892182931e-01
9.772376905525800295e-01
9.770605809505970019e-01
9.771541450493219649e-01
9.775762173168853764e-01
9.783431833712242787e-01
9.794278469300573553e-01
9.807615628609116509e-01
9.822884271485856633e-01
9.839305803023219443e-01
9.855505263296890917e-01
9.870107692382544817e-01
9.881872805833996631e-01
9.889816487187207406e-01
9.893307204957361156e-01
9.892127916161577161e-01
9.886497396819146077e-01
9.877048911451292712e-01
9.864768309558465953e-01
9.850897608623260249e-01
9.836813501606397336e-01
9.823892681468643362e-01
9.813377165692562798e-01
9.806252803778611193e-01
9.803152860248015577e-01
9.804296111120069934e-01
9.809465513411890214e-01
9.818029535638659322e-01
9.829004061336328313e-01
9.841148806058740428e-01
9.853088809881547228e-01
9.863449112880428027e-01
9.870989430609200532e-01
9.874725646603826901e-01
9.874026229379487818e-01
9.868674135953305893e-01
9.858888142344568450e-01
9.845301513074504740e-01
9.828900097643559208e-01
9.810925913534327414e-01
9.792755653707543306e-01
9.775766011123935284e-01
9.761199003266107788e-01
9.750040479634511925e-01
9.742923704750358072e-01
9.740067454632949095e-01
9.741254686299397614e-01
9.745853868264887643e-01
9.752880884065384670e-01
9.761095449254697520e-01
9.769122603908505509e-01
9.775587388102481290e-01
9.779249517390447011e-01
9.779124875308352616e-01
9.774581930371393224e-01
9.765403639596680341e-01
9.751808779003507954e-01
9.734430613113090880e-01
9.714254991425906871e-01
9.692523931424520400e-01
9.670614126069674299e-01
9.649902268322092524e-01
9.631630375664391730e-01
9.616784297597009701e-01
9.605997298641171245e-01
9.599488154816165908e-01
9.597039823139112968e-01
9.598020772125194222e-01
9.601446885310375157e-01
9.606077878248466817e-01
9.610538791015146298e-01
9.613454663686090695e-01
9.613585211815111053e-01
9.609946318938172860e-01
9.601906453570457911e-01
9.589248572729085485e-01
9.572191452433345127e-01
9.551368357204456094e-01
9.527765136542880597e-01
9.502623807931214195e-01
9.477321064330176403e-01
9.453233598700496731e-01
9.431603428524788502e-01
9.413416403303492830e-01
9.399305787557833414e-01
9.389490357307100910e-01
9.383753069568414595e-01
9.381462392856958488e-01
9.381634210708692523e-01
9.383028238677431077e-01
9.384269516838851244e-01
9.383983085268629010e-01
9.380928659520579860e-01
9.374122123130667061e-01
9.362931944614062418e-01
9.347141080987899642e-01
9.326968308271460506e-01
9.303046890985966488e-01
9.276362678631879799e-01
9.248157688691788225e-01
9.219808614126433488e-01
9.192692147896521782e-01
9.168050307484677530e-01
9.146868942391336299e-01
9.129781317137727337e-01
9.117006207743135748e-01
9.108326571224685253e-01
9.103110876097558757e-01
9.100375005897713976e-01
9.098878676178970837e-01
9.097246927017001994e-01
9.094104798487482322e-01
9.088212006144230637e-01
9.078584433523205766e-01
9.064590549139589504e-01
9.046013310010503350e-01
9.023071492155233519e-01
8.996398360095004820e-01
8.966979763330275022e-01
8.936057719343635242e-01
8.905008921095814989e-01
8.875210061547551543e-01
8.847903158181437133e-01
8.824074060497921757e-01
8.804356033018230221e-01
8.788967851761652073e-01
8.777692473745305479e-01
8.769898367484377788e-01
8.764601416514824495e-01
8.760561336390476628e-01
8.756403167186976866e-01
8.750751948980031170e-01
8.742367397323443923e-01
8.730265395753180613e-01
8.713814412784415264e-01
8.692797405434272706e-01
8.667433149722050256e-01
8.638354910168951628e-01
8.606548536275451244e-01
8.573256045524128011e-01
8.539854130875722538e-01
8.507719485290966555e-01
8.478094126252453400e-01
8.451963903260630850e-01
8.429962080836725935e-01
8.412307435000027089e-01
8.398782922767654702e-01
8.388757012654796119e-01
8.381245588197404617e-01
8.375008364949301232e-01
8.368670382986169720e-01
8.360856682383654981e-01
8.350326978695602476e-01
8.336097155457964369e-01
8.317535681185924679e-01
8.294425512896597130e-01
8.266985426609277932e-01
8.235848686845195221e-01
8.202001143104782344e-01
8.166684812870650401e-01
8.131276389103526681e-01
8.097152564764147353e-01
8.065555357335102427e-01
8.037470616316843008e-01
8.013531606230595017e-01
7.993957103095646888e-01
7.978530063929116789e-01
7.966618957246193178e-01
7.957239666582832660e-01
7.949151907492851832e-01
7.940980720051937780e-01
7.931351144335740955e-01
7.919022895898086833e-01
7.903011858274946455e-01
7.882686499981496064e-01
7.857829778034854940e-01
7.828660468454313737e-01
7.795811835761095043e-01
7.760269729455654408e-01
7.723276167020581839e-01
7.686207841416607955e-01
7.650441445604472257e-01
7.617218997066766972e-01
7.587526345303940989e-01
7.561996754837216894e-01
7.540849001685886455e-01
7.523866042867075610e-01
7.510416346895949502e-01
7.499515797308489162e-01
7.489924109658501195e-01
7.480266324021672686e-01
7.469167480473656306e-01
7.455387294568283085e-01
7.437941649841504077e-01
7.416199014808513290e-01
7.389942346486423341e-01
7.359390420894529328e-01
7.325176502554052727e-01
7.288286440965444646e-01
7.249962253611298424e-01
7.211580633452346900e-01
7.174518273449326244e-01
7.140017191084826464e-01
7.109063235859300889e-01
7.082289672293970995e-01
7.059915276408129658e-01
7.041723005218898379e-01
7.027081327241457842e-01
7.015006126011755772e-01
7.004257117083630968e-01
6.993459340532756086e-01
6.981237836434790456e-01
6.966352320343556226e-01
6.947818675795016663e-01
6.925005371304352453e-01
6.897695363888687314e-01
6.866107429567309683e-01
6.830874832861442147e-01
6.792983423271538035e-01
6.753675218280186243e-01
6.714326910848125163e-01
6.676315193936086523e-01
6.640882085026658110e-01
6.609013433620308797e-01
6.581342504238242297e-01
6.558088072899755927e-01
6.539033096621976737e-01
6.523546043920078752e-01
6.510642798330023018e-01
6.499083075405629462e-01
6.487491915222569627e-01
6.474494357856520610e-01
6.458850118861299006e-01
6.439575081772863641e-01
6.416037715106398531e-01
6.388020975879025176e-01
6.355743640110030901e-01
6.319838972320643844e-01
6.281292822011310673e-01
6.241347206664623615e-01
6.201378819241323281e-01
6.162764352702134740e-01
6.126745824529652440e-01
6.094309084224337481e-01
6.066087396307408008e-01
6.042299536798146908e-01
6.022728462713686781e-01
6.006742642569201651e-01
5.993357959900653675e-01
5.981334130261858339e-01
5.969296193728491629e-01
5.955869190376229527e-01
5.939812835758889742e-01
5.920143013412426658e-01
5.896228191852028733e-01
5.867851328094815244e-01
5.835231198160077959e-01
5.799001066569036134e-01
5.760146782822135325e-01
5.719910364401984415e-01
5.679668504269317353e-01
5.640797895384853655e-01
5.604540555231184440e-01
5.571882333308778579e-01
5.543456494138848667e-01
5.519481813740687581e-01
5.499741249131412379e-01
5.483603268826208188e-01
5.470083756361033833e-01
5.457942427289708132e-01
5.445804321687905958e-01
5.432294479631297746e-01
5.416172616673706752e-01
5.396454616351087363e-01
5.372508947178628036e-01
5.344118566173443607e-01
5.311502249354826954e-01
5.275293261244003995e-01
5.236477451341421396e-01
5.196296837129664725e-01
5.156128111569485695e-01
5.117347967621621585e-01
5.081198422768641310e-01
5.048665326511005969e-01
5.020381943369947031e-01
4.996567049364748492e-01
4.977003601512530184e-01
4.961060068328478345e-01
4.947752333348547915e-01
4.935840112126561041e-01
4.923948444738188157e-01
4.910702371259108023e-01
4.894861607243133905e-01
4.875442036226227405e-01
4.851812126723570873e-01
4.823754835752283587e-01
4.791488939331663421e-01
4.755647701982925746e-01
4.717216973206521669e-01
4.677438770485036756e-01
4.637689786779226053e-01
4.599346715049810186e-01
4.563651572779393595e-01
4.531590209468402408e-01
4.503795889638084193e-01
4.480487389307716839e-01
4.461447665494425729e-01
4.446045186713392106e-01
4.433295836500579234e-01
4.421959330409796496e-01
4.410660708516733197e-01
4.398025010897036458e-01
4.382811953104548963e-01
4.364037418675226765e-01
4.341069876124243332e-01
4.313692282468725159e-01
4.282123413727964012e-01
4.246996534423182479e-01
4.209297494054815569e-01
4.170268310105494369e-01
4.131285675535906199e-01
4.093726283306818869e-01
4.058832150900816282e-01
4.027589127818347325e-01
4.000630478580637361e-01
3.978174979206973161e-01
3.960005586714476777e-01
3.945490769618332783e-01
3.933646411454500003e-01
3.923232227776805581e-01
3.912873258660892195e-01
3.901194544182475243e-01
3.886955799895338570e-01
3.869172909335462651e-01
3.847214341018024841e-01
3.820863051960144419e-01
3.790337818181105378e-01
3.756271904202144740e-01
3.719651159523716943e-01
3.681717601628384240e-01
3.643847923476919437e-01
3.607418818030020957e-01
3.573672302770308229e-01
3.543594227198224034e-01
3.517817855834989849e-01
3.496561964699901326e-01
3.479609510810064976e-01
3.466328962680677028e-01
3.455736203847696864e-01
3.446590949864936637e-01
3.437518240808082881e-01
3.427143116752778829e-01
3.414225293252882709e-01
3.397780653844321708e-01
3.377177667042294829e-01
3.352199289863918019e-01
3.323064298328487487e-01
3.290405956957214717e-01
3.255210115250560809e-01
3.218718790691127984e-01
3.182308676239617440e-01
3.147356464856785885e-01
3.115104174025240535e-01
3.086537653245409185e-01
3.062290167038522193e-01
3.042580491423869660e-01
3.027191583418576415e-01
3.015491911537810377e-01
3.006497359317550910e-01
2.998967642311613502e-01
2.991527800595648601e-01
2.982802874245365499e-01
2.971552578814545265e-01
2.956792797839179476e-01
2.937891999834432721e-01
2.914633141817436490e-01
2.887234999807467006e-01
2.856330838325759069e-01
2.822906506872760457e-01
2.788204022931065618e-01
2.753600079461407391e-01
2.720471369424519725e-01
2.690059910302991519e-01
2.663351551597285538e-01
2.640979557828615487e-01
2.623162705016272578e-01
2.609683950177374423e-01
2.599911761827118362e-01
2.592862023501439350e-01
2.587294450754175634e-01
2.581834083661006529e-01
2.575105962297576379e-01
2.565869802217735085e-01
2.553141486957419271e-01
2.536289485031824609e-01
2.515096753458067602e-01
2.489782068255443070e-01
2.460978693945162499e-01
2.429672480027686987e-01
2.397105443985612094e-01
2.364654278779663166e-01
2.333695677370572485e-01
2.305471657240954486e-01
2.280968067891231132e-01
2.260818173842649159e-01
2.245240751114482014e-01
2.234018756723864796e-01
2.226520659185958206e-01
2.221762342036754934e-01
2.218503520830034659e-01
2.215369235641508894e-01
2.210984526546825035e-01
2.204109109099804953e-01
2.193758866836423294e-01
2.179302268271847143e-01
2.160522270423203550e-01
2.137637649309780119e-01
2.111281669452811371e-01
2.082440180352722048e-01
2.052355199492132409e-01
2.022403419831765026e-01
1.993961534332355512e-01
1.968271560476488324e-01
1.946319347764638441e-01
1.928738160718004857e-01
1.915746775355884890e-01
1.907128148695401426e-01
1.902250749251745421e-01
1.900130460560848500e-01
1.899526998176570836e-01
1.899065402174550943e-01
1.897370712630475631e-01
1.893202645098159276e-01
1.885577083113563202e-01
1.873862495191879196e-01
1.857841838350215713e-01
1.837733888607870625e-01
1.814171910486063466e-01
1.788141753485237850e-01
1.760885435088012374e-01
1.733779648255094619e-01
1.708201085947224085e-01
1.685391765647005213e-01
1.666337536854866352e-01
1.651671664092062008e-01
1.641612923377862021e-01
1.635944271729387889e-01
1.634034177661821963e-01
1.634898524711142775e-01
1.637297028431135282e-01
1.639854728897505998e-01
1.641196666185905650e-01
1.640082555850164159e-01
1.635528281426236186e-01
1.626902311429305747e-01
1.613987602876496008e-01
1.597002931787095126e-01
1.576581562682327076e-01
1.553709345062638247e-01
1.529628296410615873e-01
1.505715109687026376e-01
1.483346477852562073e-01
1.463764418389846278e-01
1.447954780799320385e-01
1.436550829602201707e-01
1.429771340817784786e-01
1.427399271463195840e-01
1.428803090053605285e-01
1.432998680124977775e-01
1.438745757231144617e-01
1.444669361447760703e-01
1.449394532850506734e-01
1.451680986993206801e-01
1.450544607411810849e-01
1.445353862621506225e-01
1.435891709639411373e-01
1.422376924484824723e-01
1.405442771678966640e-01
1.386075100722270470e-01
1.365515929097360637e-01
1.345141949764938061e-01
1.326329855685775549e-01
1.310321664342420644e-01
1.298103225235361924e-01
1.290307802885807265e-01
1.287154173313043160e-01
1.288425293534199989e-01
1.293489632064451500e-01
1.301363072439768453e-01
1.310805330213945241e-01
1.320441445462693653e-01
1.328896458261656366e-01
1.334930084164661357e-01
1.337558206707668007e-01
1.336149294405858390e-01
1.330486304276357057e-01
1.320788012338447448e-01
1.307687683113368526e-01
1.292171166101549196e-01
1.275480478785586680e-01
1.258992314126236300e-01
1.244083365084204945e-01
1.231995649142107047e-01
1.223715015800377476e-01
1.219874729580255335e-01
1.220693566501016986e-01
1.225954483579788229e-01
1.235025949331752804e-01
1.246923847292869814e-01
1.260407893016955716e-01
1.274103126579691769e-01
1.286634588056729533e-01
1.296761993001920021e-01
1.303501224951190973e-01
1.306220752419747222e-01
1.304703532424705270e-01
1.299168340985349945e-01
1.290248442622900504e-01
1.278929686837826096e-01
1.266454091112710068e-01
1.254198348408274433e-01
1.243539151685272154e-01
1.235718518426271589e-01
1.231722298131758819e-01
1.232183755322930341e-01
1.237321666019083333e-01
1.246918987237346510e-01
1.262382002847392826e-01
1.284723972688806004e-01
1.312643953739040248e-01
1.344706327497414700e-01
1.379475475463255996e-01
1.415650454614000020e-01
1.452186489909278733e-01
1.488391391287902654e-01
1.523987457190644490e-01
1.559132805060428617e-01
1.594400040842142985e-01
1.630714355459851606e-01
1.669257107819816788e-01
1.711344332306419247e-01
1.758292063304006669e-01
1.811281659718851911e-01
1.871238312475020094e-01
1.938734627517398890e-01
2.013928722288915174e-01
2.096542895230332215e-01
2.185884956280487734e-01
2.280910130398959845e-01
2.380317474563233560e-01
2.482671370272620248e-01
2.586536199026439053e-01
2.690611017802156391e-01
2.793851051559355647e-01
2.895564110236886202e-01
2.995472492275501053e-01
3.093734315118144007e-01
3.190922184709664156e-01
3.287961291974184630e-01
3.386032995817906399e-01
3.486453330625237657e-01
3.590538330780554399e-01
3.699469355190069253e-01
3.814171594777895913e-01
3.935217655488907340e-01
4.062765654766025136e-01
4.196537891050016733e-01
4.335842174279710415e-01
4.479633729414719823e-01
4.626611613432476400e-01
4.775340207832327599e-01
4.924383894113592564e-01
5.072441729253703846e-01
5.218468938212298402e-01
5.361773330928180092e-01
5.502077205842123009e-01
5.639538680397061521e-01
5.774730360537868590e-01
5.908577437188616832e-01
6.042261269255567724e-01
6.177097891123088935e-01
6.314403337175561459e-01
6.455358966319220126e-01
6.600889969478158648e-01
6.751568952597247764e-01
6.907554033119419623e-01
7.068567509485436107e-01
7.233917191634138266e-01
7.402558304525100885e-01
7.573189905135823130e-01
7.744376374965580290e-01
7.914682095513725368e-01
8.082806123757715344e-01
8.247703684657136103e-01
8.408682588150828696e-01
8.565465132679552784e-01
8.718209435686241626e-01
8.867488103115764853e-01
9.014226325892231717e-01
9.159605462921842634e-01
9.304941548589009681e-01
9.451550617278096089e-01
9.600614027895343350e-01
9.753056971364839622e-01
9.909452053631464530e-01
1.006995739213814689e+00
1.023429528532563859e+00
1.040177354313278402e+00
1.057134739051918793e+00
1.074171588446228398e+00
1.091144340646143407e+00
1.107909433801592014e+00
1.124336773610321805e+00
1.140321882568292589e+00
1.155795541669387472e+00
1.170729980757682975e+00
1.185141011577472758e+00
1.199085894723243007e+00
1.212657149287403646e+00
1.225972911160577050e+00
1.239164783781203871e+00
1.252364370587719211e+00
1.265689807470748329e+00
1.279233613522699597e+00
1.293053049338060312e+00
1.307163926661123909e+00
1.321538475335967355e+00
1.336107476356472201e+00
1.350766452218598479e+00
1.365385308620094662e+00
1.379820483710890056e+00
1.393928415640919294e+00
1.407579010107925521e+00
1.420667789607870324e+00
1.433125535134636142e+00
1.444924476532300828e+00
1.456080425545156043e+00
1.466650642767689083e+00
1.476727647292309653e+00
1.486429575009641679e+00
1.495888029358121818e+00
1.505234613776190278e+00
1.514587464154468543e+00
1.524039099585365431e+00
1.533646780663370235e+00
1.543426319132775504e+00
1.553349944837656205e+00
1.563348438771897220e+00
1.573317323431457471e+00
1.583126504514082100e+00
1.592632420169706631e+00
1.601691508548259257e+00
1.610173675347487343e+00
1.617974443063351142e+00
1.625024592689734426e+00
1.631296354070712162e+00
1.636805538950577565e+00
1.641609407923819930e+00
1.645800480082846073e+00
1.649496891318279701e+00
1.652830245068561466e+00
1.655932144772125358e+00
1.658920726319598637e+00
1.661888508803387232e+00
1.664892752817982435e+00
1.667949270107673021e+00
1.671030290516537953e+00
1.674066595038458560e+00
1.676953706169396652e+00
1.679561529607098258e+00
1.681746503501492906e+00
1.683365066002516786e+00
1.684452515748313672e+00
1.685074441095527176e+00
1.685168632418460266e+00
1.684714328941609773e+00
1.683734351789687445e+00
1.682292970937601329e+00
1.680489714858182326e+00
1.678449728822472231e+00
1.676311625649328008e+00
1.674214018157611283e+00
1.672282051618361409e+00
1.670615254504411507e+00
1.669277896790666293e+00
1.668292799601839738e+00
1.667639202162427781e+00
1.667254894846735613e+00
1.667042409531140912e+00
1.666878661293810460e+00
1.666627097665096757e+00
1.666151166175350529e+00
1.665327781902740556e+00
1.664059476723644959e+00
1.662284041012366931e+00
1.659980713993403301e+00
1.657172316791466482e+00
1.653923119381466078e+00
1.650332650236227883e+00
1.646526054626799018e+00
1.642641945372035561e+00
1.638818935290794476e+00
1.635182169654122220e+00
1.631831176934845695e+00
1.628830227107873618e+00
1.626202141297918402e+00
1.623926158729476432e+00
1.621940069776850457e+00
1.620146406316422816e+00
1.618422083426357849e+00
1.616630548637006726e+00
1.614635249478723278e+00
1.612313101029672735e+00
1.609566635166234549e+00
1.606333642262713246e+00
1.602593361543604988e+00
1.598368614133622190e+00
1.593723670007672011e+00
1.588758057638585575e+00
1.583596922297403786e+00
1.578378876802987385e+00
1.573242533974192892e+00
1.568313039082063209e+00
1.563689920599429684e+00
1.559437448501197476e+00
1.555578443912081221e+00
1.552092146056576860e+00
1.548916345308987585e+00
1.545953573545693960e+00
1.543080745844859658e+00
1.540161309736840067e+00
1.537058712751985246e+00
1.533649869968462420e+00
1.529837313262651266e+00
1.525558833008853865e+00
1.520793668431567713e+00
1.515564640655506334e+00
1.509936019655576667e+00
1.504007333904606725e+00
1.497903728673642965e+00
1.491763816781539909e+00
1.485726211047158074e+00
1.479916056741541031e+00
1.474432882337516348e+00
1.469340957809992965e+00
1.464663104283683071e+00
1.460378560983083718e+00
1.456425118282497433e+00
1.452705308058304778e+00
1.449096045388672760e+00
1.445460777803950325e+00
1.441662952834492639e+00
1.437579485558465597e+00
1.433112907852247098e+00
1.428201010090142331e+00
1.422823031496647017e+00
1.417001793196474235e+00
1.410801565164531146e+00
1.404321875873648429e+00
1.397687870594866766e+00
1.391038162147046897e+00
1.384511363349046231e+00
1.378232619471907672e+00
1.372301458988461231e+00
1.366782151873613183e+00
1.361697519252077937e+00
1.357026800348350548e+00
1.352707785536735541e+00
1.348643006693613700e+00
1.344709378897147145e+00
1.340770349677693485e+00
1.336689366565599446e+00
1.332343344639034477e+00
1.327634815774378252e+00
1.322501570345933075e+00
1.316922847578195999e+00
1.310921468595879436e+00
1.304561703373891435e+00
1.297943080385061121e+00
1.291190744900432952e+00
1.284443309738862338e+00
1.277839387719210018e+00
1.271504124112518230e+00
1.265537047391616765e+00
1.260002427531412561e+00
1.254923085656618920e+00
1.250278260991733337e+00
1.246005743911056340e+00
1.242008066290970492e+00
1.238162143209641908e+00
1.234331422197419537e+00
1.230379350784659653e+00
1.226182844049524823e+00
1.221644433868397606e+00
1.216701910615579862e+00
1.211334513515568423e+00
1.205565063693076366e+00
1.199457831123011520e+00
1.193112344278201453e+00
1.186653748429692179e+00
1.180220656396341328e+00
1.173951680997004088e+00
1.167971967502726693e+00
1.162381044386338269e+00
1.157243181622745531e+00
1.152581200336662004e+00
1.148374339752583406e+00
1.144560390244814041e+00
1.141041883689732028e+00
1.137695735165505706e+00
1.134385392202487353e+00
1.130974302331025694e+00
1.127339380629290622e+00
1.123383158973659812e+00
1.119043427738436902e+00
1.114299426148119165e+00
1.109173975327419903e+00
1.103731345251244278e+00
1.098071064392423857e+00
1.092318278022001099e+00
1.086611598958834968e+00
1.081089640021781317e+00
1.075877546481887270e+00
1.071074846811979731e+00
1.066745810986965637e+00
1.062913260131559179e+00
1.059556433470257186e+00
1.056613121377360631e+00
1.053985855729252963e+00
1.051551551604098078e+00
1.049173656532246479e+00
1.046715618044054441e+00
1.044054351217684307e+00
1.041092387929518637e+00
1.037767518553858626e+00
1.034058982315201991e+00
1.029989600338262035e+00
1.025623642597943919e+00
1.021060637567080764e+00
1.016425730516713255e+00
1.011857534265699687e+00
1.007494661632898802e+00
1.003462257889353504e+00
9.998598515078943594e-01
9.967517124634271974e-01
9.941606618806664297e-01
9.920659389841069986e-01
9.904053341480535400e-01
9.890813792488846179e-01
9.879709893647689034e-01
9.869376120260556773e-01
9.858446947630973289e-01
9.845691526540621963e-01
9.830135175753280663e-01
9.811155799011990197e-01
9.788545788561714422e-01
9.762533355649583022e-01
9.733761200024672045e-01
9.703224606415262743e-01
9.672175027531818570e-01
9.641998591562896959e-01
9.614081426697071997e-01
9.589674985644809357e-01
9.569774553134368089e-01
9.555022828914846444e-01
9.545648024233363005e-01
9.541442531334887178e-01
9.541784253962436457e-01
9.545698510879843113e-01
9.551954452868738343e-01
9.559186555232654925e-01
9.566029293275108980e-01
9.571251817777758353e-01
9.573879447504425322e-01
9.573290086198119608e-01
9.569276126103806179e-01
9.562065778468630262e-01
9.552301743041641258e-01
9.540914071319952505e-01
9.529052433288129897e-01
9.518048132892854563e-01
9.509232474080741015e-01
9.503802085320292026e-01
9.502697427097892557e-01
9.506506374920655755e-01
9.515402315793790589e-01
9.529122817720326877e-01
9.546990960201356957e-01
9.567977237758737985e-01
9.590795976932232625e-01
9.614026828783389655e-01
9.636249444373810036e-01
9.656178150243214242e-01
9.672783440913481634e-01
9.685388395885693447e-01
9.693730583162890602e-01
9.697983389750268746e-01
9.698734691154967669e-01
9.696924947863329036e-01
9.693750788343888924e-01
9.690543516543258518e-01
9.688634436408103401e-01
9.689220176406928564e-01
9.693241197026075673e-01
9.701285373772693399e-01
9.713526093651979609e-01
9.729700924666961903e-01
9.749132946318735948e-01
9.770792653129171113e-01
9.793394371638004525e-01
9.815517752906788296e-01
9.835742447997143367e-01
9.852782783448780224e-01
9.865609253783574895e-01
9.873544938502618606e-01
9.876327405608942289e-01
9.874130042107736038e-01
9.867540723506149636e-01
9.857499910290546952e-01
9.845204230929406330e-01
9.831984989369403349e-01
9.819550124903780874e-01
9.809503200467040163e-01
9.802830125224548663e-01
9.800164223362448634e-01
9.801724330564961507e-01
9.807293463514138443e-01
9.816240150390076469e-01
9.827580334393661854e-01
9.840073790743643078e-01
9.852345619180622460e-01
9.863020919445174561e-01
9.870859466756071177e-01
9.874877204314184143e-01
9.874442660299622698e-01
9.869338851394430234e-01
9.859784613282830401e-01
9.846413270150952135e-01
9.830210731164195082e-01
9.812419073470073361e-01
9.794415049694221720e-01
9.777575412462333748e-01
9.763142238921896920e-01
9.752101438238305331e-01
9.745086334597702349e-01
9.742315763684303853e-01
9.743572742180159896e-01
9.748225798265360842e-01
9.755290875140809614e-01
9.763527748025244701e-01
9.771561516659260649e-01
9.778017280783466436e-01
9.781654815616582788e-01
9.781490064359518177e-01
9.776891555192368521e-01
9.767642304797182762e-01
9.753961148858170116e-01
9.736481411561496158e-01
9.716189002072508352e-01
9.694325997538748574e-01
9.672269150585878217e-01
9.651395213839529807e-01
9.632946264447245222e-01
9.617908211574391908e-01
9.606914379407118787e-01
9.600183603629640627e-01
9.597498900924006371e-01
9.598228799470328587e-01
9.601389242469465790e-01
9.605740005140189774e-01
9.609906187223097307e-01
9.612512888458758509e-01
9.612319884065955167e-01
9.608343117245536913e-01
9.599951116177639632e-01
9.586926897544290060e-01
9.569489297029720731e-01
9.548271638820055029e-01
9.524259832080691490e-01
9.498695953959138683e-01
9.472956757081059109e-01
9.448418994072118604e-01
9.426324742079809083e-01
9.407659910269529080e-01
9.393057822827424186e-01
9.382737315437706949e-01
9.376481404782424089e-01
9.373658619041672635e-01
9.373284901416364390e-01
9.374120027125201204e-01
9.374789095908816483e-01
9.373917207507805882e-01
9.370264137140887906e-01
9.362845828008973248e-01
9.351030808292155605e-01
9.334602094672490580e-01
9.313778522834176288e-01
9.289193416963386074e-01
9.261832686225465183e-01
9.232938407767958822e-01
9.203887334216512839e-01
9.176056218196789738e-01
9.150687136856302528e-01
9.128765999360440864e-01
9.110926129895337011e-01
9.097386364145212401e-01
9.087929718792111533e-01
9.081924722016153639e-01
9.078387317018193903e-01
9.076077279017013000e-01
9.073619707753179942e-01
9.069639702967295936e-01
9.062897039878131666e-01
9.052407661686536766e-01
9.037540096572643789e-01
9.018077361218486132e-01
8.994238291308279676e-01
8.966656211028177781e-01
8.936317029543544566e-01
8.904462824001926347e-01
8.872470347028952320e-01
8.841716351250292760e-01
8.813442913813466228e-01
8.788635943883840174e-01
8.767928765647577949e-01
8.751540214788883221e-01
8.739253307989812702e-01
8.730436573430452318e-01
8.724105954311717204e-01
8.719021225852312540e-01
8.713807487792881723e-01
8.707089839873988213e-01
8.697628057314379380e-01
8.684438083314960366e-01
8.666888446055822648e-01
8.644762162219011836e-01
8.618278067488747141e-01
8.588069486051177481e-01
8.555122327071678079e-01
8.520678667697754172e-01
8.486115260555098239e-01
8.452808858269339476e-01
8.422001537987997555e-01
8.394679208876464349e-01
8.371475195120872126e-01
8.352608332405444536e-01
8.337861637412224969e-01
8.326603638321328216e-01
8.317850278333617231e-01
8.310361332667868250e-01
8.302761901064640293e-01
8.293677083264575645e-01
8.281866654486381707e-01
8.266346557930955852e-01
8.246485321778412869e-01
8.222065962710788378e-01
8.193307316412299368e-01
8.160842707069099200e-01
8.125658043846558654e-01
8.088995403892198510e-01
8.052231539831665730e-01
8.016743204290651681e-01
7.983772474416641618e-01
7.954305259375017423e-01
7.928974883351941338e-01
7.908000182031619252e-01
7.891164172096090113e-01
7.877835381725478703e-01
7.867029754120655749e-01
7.857507064500356408e-01
7.847892412605210755e-01
7.836810898175787798e-01
7.823022296430842681e-01
7.805542550571256122e-01
7.783740188777138469e-01
7.757398227730533113e-01
7.726735503115659265e-01
7.692385339118662513e-01
7.655333644904919188e-01
7.616822497621935639e-01
7.578228649895403235e-01
7.540928854350941180e-01
7.506165188136102451e-01
7.474923560416237844e-01
7.447837295377504052e-01
7.425125228704116953e-01
7.406570377078125489e-01
7.391541268679633347e-01
7.379053846709524578e-01
7.367867886386539888e-01
7.356608487451273826e-01
7.343900749644349801e-01
7.328504448184485209e-01
7.309435526272571870e-01
7.286062512088719023e-01
7.258168422314970059e-01
7.225972092635548627e-01
7.190106847236591436e-01
7.151558595283479258e-01
7.111569413923731764e-01
7.071516055782993693e-01
7.032775273486958634e-01
6.996589144183102960e-01
6.963943577036832977e-01
6.935471896234286504e-01
